86.5963235836
89.2957706769
91.8976861377
94.3097005093
96.4494563858
98.2488527229
99.6574311284
100.64470618
101.201311063
101.338904545
101.08886612
100.499879279
99.6345749934
98.5654624761
97.3704152386
96.1280028868
94.9129640707
93.7920957989
92.8208046378
92.040512794
91.4770528604
91.1401142353
91.023735277
91.1077670838
91.3601706272
91.7399615223
92.2005781278
92.6934306716
93.1713843659
93.5919453424
93.9199468319
94.1295744207
94.2056242777
94.1439426135
93.9510560178
93.6430567522
93.2438569347
92.7829665427
92.2929753098
91.806933674
91.3558255921
90.9663115416
90.6588937443
90.4466178081
90.3343820796
90.3188793337
90.389147454
90.5276628944
90.7118742388
90.9160460762
91.1132636262
91.2774444014
91.3852102092
91.4174872968
91.3607285249
91.2076841015
90.9576819653
90.6164198365
90.1953033659
89.7103997448
89.1810994915
88.6285984399
88.0743187478
87.5383905601
87.0383019151
86.5878110854
86.1961901343
85.8678407593
85.6022966282
85.3945927279
85.2359594772
85.1147747698
85.0176916904
84.9308498658
84.8410760719
84.7369842035
84.6098965474
84.4545245626
84.2693677396
84.0568139247
83.8229440677
83.57706791
83.3310360856
83.0983881074
82.8934049346
82.7301397222
82.6214959139
82.5784181494
82.6092479028
82.7192813221
82.9105505416
83.1818307714
83.5288606398
83.9447462639
84.4205101201
84.9457338625
85.5092441754
86.0997867671
86.7066417753
87.3201385295
87.9320403237
88.5357782639
89.1265307373
89.7011541377
90.2579836479
90.7965308527
91.317111491
91.8204413424
92.3072370728
92.7778576224
93.2320148077
93.6685741423
94.0854606387
94.4796712435
94.8473898404
95.1841906907
95.4853080836
95.7459477358
95.9616128856
96.1284150978
96.2433467818
96.3044910346
96.3111561677
96.2639248261
96.1646165771
96.0161706086
95.8224600143
95.5880552046
95.3179580039
95.0173287546
94.6912283654
94.3443955916
93.9810751869
93.6049096324
93.2188989487
92.8254282913
92.4263563194
92.0231525489
91.6170685214
91.2093236999
90.8012860003
90.3946278317
89.9914416009
89.5943009978
89.2062601362
88.8307877675
88.471639799
88.1326787474
87.8176544849
87.5299629928
87.2724041578
87.0469588465
86.8546049047
86.6951907407
86.567379544
86.4686716438
86.3955071086
86.3434446027
86.3074055565
86.2819667236
86.2616806412
86.2413997427
86.216578157
86.1835274067
86.1396029525
86.0833049873
86.0142813732
85.9332287508
85.8416961814
85.7418032566
85.6358918786
85.5261378181
85.414152121
85.300606423
85.1849152287
85.0650062418
84.9372043219
84.7962482568
84.6354498535
84.4469947848
84.222372672
83.9529133144
83.63039726
83.2476998085
82.7994212741
82.2824566222
81.6964549202
81.0441272278
80.3313678803
79.5671652438
78.7632931892
77.9337870842
77.0942278458
76.2608694734
75.4496610462
74.6752252261
73.9498599673
73.2826359764
72.6786588536
72.1385555245
71.658235869
71.2289599435
70.8377246807
70.4679608357
70.1005070998
69.7148100392
69.2902756655
68.8076868077
68.2505896356
67.6065510626
66.8681897355
66.0338974563
65.1081827456
64.101594402
63.0302070727
61.9146833394
60.7789559135
59.6486026454
58.5490138883
57.5034674511
56.531242866
55.6459046782
54.8538827841
54.1534607371
53.5342581067
52.9772639379
52.4554405623
51.9348781138
51.3764435589
50.7378276838
49.9758658738
49.048985157
47.919617264
46.5564184915
44.9361461918
43.0450672007
40.8798046049
38.4475728528
35.7657987808
32.8611750973
29.7682410667
26.5276274241
23.1841361045
19.7848459383
16.3774415981
13.0089536587
9.72506929895
6.5701323916
3.58789611182
0.823023538933
-1.67673683579
-3.85784967529
-5.65797977806
-7.00293794635
-7.80390158316
-7.95524373969
-7.33330584638
-5.79642259656
-3.18645321731
0.668000019774
5.94660209924
12.8305536213
21.4942674989
32.095729324
44.7659328204
59.5978874608
76.6357764144
95.8648951878
117.203022265
140.493851264
165.503058172
191.917477668
219.347732634
247.334500967
275.358420163
302.853438055
329.223222004
353.860056482
376.165497589
395.571918364
411.563994426
423.699132818
431.625858877
435.099239434
433.992531045
428.304406917
418.161311399
403.814722711
385.633348202
364.090524685
339.74733604
313.23217608
285.217663919
256.395954215
227.453564545
199.046866365
171.779345832
146.181647953
122.695270199
101.660576117
83.3095779235
67.763686903
55.036378752
45.0404740666
37.5995082155
32.4624707026
29.3210475346
27.8283970927
27.6184516747
28.3247437896
29.5978285966
31.1204864082
32.6200494935
33.8773838387
34.7322630773
35.0850880216
34.8951089328
34.1754970414
32.9857757409
31.4222373406
29.6070571575
27.6768471377
25.7713791006
24.0231537621
22.5483926126
21.4399119441
20.762185554
20.5487503519
20.8019481741
21.4948486684
22.5750675768
23.970089159
25.5936288495
27.3525303324
29.1536897283
30.9105278698
32.5485916944
34.0099506134
35.2561559579
36.2696437414
37.0535751379
37.6302177124
38.0380657866
38.3279760986
38.5586464225
38.7917934658
39.0873882993
39.4992838843
40.0715234171
40.8355549542
41.8084993469
42.9925388714
44.3754091369
45.9318985626
47.6261927053
49.4148507417
51.2501637789
53.0836333037
54.8693119728
56.5667722493
58.1435079759
59.5766255718
60.8537402671
61.9730584478
62.9426818658
63.7792317356
64.5059314751
65.1503218086
65.7418014541
66.309186263
66.8784733196
67.4709677923
68.1018970486
68.7795939974
69.5052827885
70.2734533211
71.0727659262
71.8873896528
72.698648759
73.4868327118
74.2330176366
74.9207534913
75.5374869633
76.0756156719
76.5330989942
76.9135923812
77.2261052605
77.4842244469
77.7049734516
77.9074064679
78.1110535941
78.3343410321
78.5931107471
78.8993526569
79.2602437995
79.677563889
80.1475277118
80.6610405799
81.2043549126
81.7600736793
82.3084238752
82.8287024875
83.3007913211
83.7066287789
84.0315348797
84.2652975923
84.4029469265
84.4451672597
84.3983243526
84.2741101642
84.0888358363
83.8624257016
83.6171854189
83.3764291336
83.1630607242
82.9982001007
82.8999440865
82.8823377663
82.9546173482
83.1207622375
83.3793778719
83.7239031634
84.1431204875
84.6219229844
85.1422829256
85.6843520344
86.2276205627
86.7520609912
87.2391880342
87.6729733394
88.0405672936
88.3327948286
88.5444082912
88.6740975266
88.7242698614
88.7006315436
88.6116077022
88.4676488361
88.280475649
88.0623119843
87.8251559484
87.5801317384
87.3369564693
87.1035466806
86.8857774015
86.6873973288
86.5100908868
86.353672319
86.2163869178
86.0952896078
85.9866707108
85.886494981
85.7908246609
85.6961996646
85.5999522475
85.5004413117
85.3971967322
85.2909722245
85.1837097276
85.0784245435
84.9790252552
84.8900840447
84.816576545
84.7636095355
84.7361530251
84.7387934365
84.7755195072
84.8495516738
84.963220505
85.1178960441
85.3139676552
85.5508705103
85.8271529227
86.1405768
86.4882438203
86.8667374548
87.2722730185
87.7008486352
88.1483900419
88.6108848464
89.0845017849
89.5656932467
90.051279873
90.5385168164
91.0251418366
91.509407011
91.9900940129
92.4665153935
92.9385026475
93.4063813221
93.8709347277
94.3333558868
94.7951889792
95.2582597242
95.7245971293
96.1963460396
96.6756722952
97.164663593
97.6652272972
98.1789895343
98.7071988597
99.2506383893
99.8095513715
100.383583561
100.971747074
101.572409189
102.183307752
102.801595619
103.423914632
104.046498278
104.665299183
105.276138729
105.874873253
106.457569727
107.020683924
107.561232019
108.076947163
108.566411607
109.029157489
109.465726699
109.877685815
110.267589856
110.638894436
110.995815553
111.343139447
111.685988569
112.029550973
112.378783725
112.738103095
113.111074021
113.500114797
113.906231305
114.328795203
114.765380382
115.211668231
115.661430656
116.106596136
116.537400761
116.942623268
117.309895265
117.626078914
117.877696695
118.051396733
118.134434955
118.115152228
117.983426176
117.731075346
117.352198499
116.843431495
116.204109069
115.436322697
114.544870876
113.537102691
112.422662026
111.213142261
109.921668317
108.562424308
107.150148267
105.699618987
104.225156138
102.740157454
101.256693522
99.7851774332
98.3341233507
96.9100013479
95.517193598
94.1580496329
92.8330345325
91.5409596018
90.279279453
89.0444390707
87.8322491854
86.6382712217
85.458190835
84.2881607049
83.1250961608
81.9669101295
80.8126781266
79.6627280131
78.518651302
77.3832422411
76.2603686091
75.1547863367
74.0719107433
73.0175567322
71.997667061
71.0180409643
70.0840803571
69.2005653332
68.3714702885
67.5998281085
66.8876479289
66.2358882245
65.6444831004
65.1124189788
64.6378534678
64.2182677222
63.8506430344
63.5316507586
63.2578429487
63.0258349828
62.8324693591
62.674953685
62.5509667653
62.4587283129
62.3970305329
62.3652325937
62.3632197465
62.3913326172
62.4502700449
62.5409741358
62.6645039564
62.8219050669
63.0140827731
63.2416856641
63.5050057462
63.8038984104
64.1377273329
64.5053358102
64.9050436779
65.3346710045
65.7915853146
66.2727691849
66.7749057399
67.2944751612
67.827858907
68.3714456136
68.9217351383
69.4754351859
70.0295465944
70.5814342567
71.1288811025
71.6701235874
72.2038667669
72.7292806535
73.2459780097
73.753974164
74.2536318029
74.7455936746
75.2307049768
75.709929515
76.1842627657
76.6546458725
77.1218839711
77.5865708873
78.0490241809
78.5092333024
78.9668230416
79.4210338098
79.8707203558
80.3143688795
80.7501331447
81.1758887643
81.5893036375
81.9879230133
82.3692657455
82.7309280355
83.070691521
83.3866309561
83.677216429
83.9414051738
84.1787187853
84.3893022997
84.5739609276
84.7341708511
84.872063415
84.9903815681
85.0924096713
85.1818782354
85.2628465982
85.3395676807
85.4163402481
85.49735525
85.5865422491
85.6874228185
85.8029769912
85.9355292317
86.0866591221
86.2571403705
86.4469112178
86.6550769713
86.8799444395
87.1190872812
87.3694379684
87.6274014836
87.8889871932
88.1499505043
88.4059408447
88.6526467014
88.8859347155
89.1019758298
89.2973548672
89.469161126
89.6150577228
89.7333291532
89.8229073121
89.8833774175
89.914966191
89.9185144159
89.8954370853
89.8476733248
89.7776282689
89.6881105478
89.5822649221
89.4635021081
89.3354260788
89.2017583332
89.0662606639
88.9326544488
88.8045380611
88.685302077
88.5780435365
88.4854815289
88.4098761325
88.3529539728
88.3158436766
88.2990257735
88.3023005681
88.3247782202
88.3648923126
88.4204410046
88.488654311
88.5662888214
88.649745462
88.735207196
88.8187901907
88.8967021636
88.9654000802
89.0217391322
89.0631039658
89.0875152573
89.0937049008
89.0811551968
89.0500989404
89.0014805004
88.9368796456
88.8584018316
88.7685419175
88.6700300439
88.5656676802
88.4581657152
88.3499931442
88.2432471484
88.1395518938
88.0399919443
87.9450847965
87.8547925656
87.7685731778
87.6854645216
87.6041966387
87.5233234424
87.4413626565
87.3569364777
87.2689000163
87.1764501643
87.0792065341
86.9772584618
86.8711763342
86.7619849445
86.6511025564
86.5402502094
86.4313379875
86.3263376538
86.2271504784
86.1354799702
86.0527194359
85.9798623396
85.9174422842
85.8655057017
85.8236193175
85.7909113375
85.7661421172
85.7477993982
85.7342089757
85.7236538237
85.7144898498
85.705251211
85.6947360889
85.6820668384
85.6667200383
85.6485238328
85.6276236422
85.6044202067
85.5794843428
85.5534565136
85.5269396338
85.5003944031
85.4740474418
85.447819052
85.4212796081
85.3936376704
85.3637629864
85.3302445983
85.2914804523
85.245793622
85.191566164
85.1273827728
85.0521728864
84.9653405528
84.8668726059
84.7574149902
84.6383109895
84.5115968697
84.3799525238
84.2466089816
84.1152160024
83.9896764237
83.8739570176
83.7718866081
83.6869528818
83.6221091469
83.5796040956
83.5608443681
83.5662980148
83.5954460566
83.6467842273
83.7178761227
83.805455018
83.9055694808
84.0137647719
84.1252901692
84.2353218684
84.3391892805
84.4325933094
84.5118056834
84.5738394223
84.6165819056
84.6388858646
84.6406142291
84.6226371746
84.5867829366
84.5357460542
84.472958489
84.4024309072
84.3285713104
84.2559901813
84.1893013298
84.1329268257
84.0909143051
84.0667727213
84.0633337735
84.0826424095
84.1258804234
84.1933250175
84.2843418144
84.3974123096
84.5301932635
84.6796065232
84.8419543184
85.013056433
85.1884041521
85.3633263809
85.5331619666
85.6934336866
85.840017557
85.9693017675
86.0783306171
86.164927402
86.2277928513
86.2665729019
86.2818942619
86.2753641747
86.2495335994
86.2078230528
86.1544119558
86.094095255
86.0321096862
85.9739372604
85.9250910403
85.8908917963
85.8762445774
85.8854233544
85.921874432
85.9880464508
86.0852561147
86.2135953735
86.3718862019
86.5576864182
86.7673469112
86.9961195735
87.238312935
87.487488338
87.7366911025
87.9787058601
88.206325653
88.4126245752
88.5912204201
88.7365195677
88.843930869
88.9100418615
88.932749097
88.9113388999
88.846515648
88.7403770132
88.5963392393
88.4190151842
88.2140522564
87.9879376256
87.7477781632
87.5010650227
87.2554314957
87.0184133479
86.7972200706
86.5985239311
86.4282725741
86.2915305444
86.1923529225
86.1336937136
86.11734845
86.143931821
86.2128880199
86.3225323089
86.4701201106
86.6519420164
86.8634405236
87.0993442431
87.3538167772
87.6206163264
87.8932624799
88.1652065109
88.4300013738
88.6814675195
88.9138511651
89.1219716696
89.3013527086
89.4483348617
89.5601663681
89.6350681388
89.6722709368
89.6720225736
89.6355648156
89.5650794247
89.4636046558
89.3349246437
89.183435898
89.0139944105
88.8317487603
88.6419666107
88.4498604282
88.2604193407
88.078253873
87.9074595768
87.7515049943
87.6131470414
87.4943773897
87.3964004398
87.319642419
87.2637905062
87.227857207
87.2102670148
87.2089580954
87.2214944933
87.2451818368
87.2771805954
87.314612365
87.3546531376
87.394611396
87.4319887051
87.4645216983
87.4902062175
87.5073050631
87.5143439854
87.5100983817
87.4935747369
87.463991608
87.4207631982
87.3634907594
87.291962428
87.2061634209
87.1062969971
86.9928129616
86.8664440181
86.7282438397
86.579623112
86.4223784275
86.2587083591
86.0912124717
85.9228686264
85.7569855453
85.5971294775
85.4470235305
85.310423575
85.1909738403
85.0920470642
85.0165775765
84.9668951145
84.944568573
84.950270168
84.9836682225
85.0433583634
85.1268387942
85.230535569
85.349880746
85.479443511
85.6131113157
85.7443152495
85.8662918588
85.97237142
86.0562782502
86.1124321088
86.1362330306
86.1243177406
86.0747740933
85.9873003806
85.8633011254
85.7059126997
85.5199552501
85.3118121561
85.0892394359
84.8611141465
84.6371305293
84.4274581005
84.2423762471
84.0919017086
83.9854247183
83.9313702123
83.9368976827
84.0076534283
84.1475829316
84.3588103799
84.6415886033
84.9943179762
85.413631475
85.8945370941
86.4306095695
87.0142195943
87.6367879718
88.2890531829
88.9613390332
89.6438113603
90.326714984
91.0005838849
91.6564197161
92.2858365887
92.8811726519
93.43557002
93.9430279172
94.3984333302
94.7975754777
95.137148658
95.4147492328
95.6288696577
95.7788929906
95.8650869898
95.8885971533
95.8514366543
95.756468378
95.6073757641
95.4086159852
95.1653530511
94.8833655031
94.5689274522
94.228664248
93.8693820867
93.4978796009
93.1207444966
92.7441463211
92.3736342199
92.013950066
91.6688689474
91.3410762845
91.0320898869
90.7422344414
90.4706716938
90.2154869075
89.9738295418
89.7421019398
89.5161871204
89.2917046475
89.0642806559
88.829818402
88.584753931
88.3262843893
88.0525542564
87.7627921001
87.4573878228
87.1379088303
86.8070529659
86.468541463
86.1269576074
85.7875399593
85.4559407595
85.1379627214
84.8392849586
84.5651926513
84.3203210419
84.1084254512
83.9321867853
83.793058312
83.6911605051
83.6252241922
83.5925853008
83.5892301619
83.6098878119
83.648167371
83.6967353525
83.747528494
83.7919956249
83.8213630925
83.8269166572
83.80029186
83.7337643737
83.6205324908
83.4549799654
83.2329085892
82.9517295926
82.6106018494
82.2105081856
81.7542584893
81.246413464
80.6931243582
80.1018904557
79.4812369328
78.8403241436
78.1885032176
77.534837161
76.8876124101
76.2538696547
75.6389814164
75.0463076025
74.4769550165
73.9296657858
73.4008503024
72.884774525
72.3738997454
71.8593633453
71.3315782292
70.780919679
70.1984554834
69.5766721551
68.9101455968
68.1961029482
67.4348263721
66.6298562969
65.7879628876
64.9188681651
64.0347175025
63.1493165514
62.2771680839
61.4323588597
60.6273619997
59.8718312082
59.1714672697
58.5270404578
57.9336447847
57.3802511098
56.8496090807
56.3185288165
55.7585461747
55.1369544211
54.4181568828
53.5652743283
52.5419207134
51.3140485734
49.8517577333
48.1309628658
46.1348242974
43.8548624421
41.2917000023
38.4554034229
35.3654270456
32.050194274
28.5463816155
24.8979933462
21.1553366513
17.374013652
13.6140455587
9.93923531533
6.41684677775
3.11765022533
0.116340375403
-2.5077116247
-4.66945763158
-6.27705530874
-7.23080549882
-7.42234475625
-6.73430791752
-5.04067797513
-2.20802111918
1.90223122014
7.43034551763
14.5136565878
23.2807898647
33.8448665013
46.2959181316
60.6928212605
77.0551415029
95.3553373117
115.511807608
137.383285472
160.765056381
185.387431902
210.916831319
236.959712283
263.069463766
288.756223057
313.499421626
336.762706964
358.010734382
376.727193252
392.433324456
404.706116714
413.195337312
417.63856466
417.873450197
413.846537207
405.618105947
393.362690815
377.365112628
358.012085755
335.779674149
311.217081726
284.927445978
257.546463097
229.719784558
202.080194469
175.225593822
149.698776743
125.96989781
104.42238938
85.3429145686
68.9157349155
55.2216468354
44.2414096004
35.8633639273
29.8947378644
26.0759600376
24.0971678055
23.616009551
24.2758037142
25.7231323921
27.6240127443
29.6779001523
31.6289248124
33.2739402758
34.4671555135
35.1213215482
35.2056377167
34.7407152529
33.7910867244
32.4558609274
30.8581976443
29.1343043223
27.4226440762
25.8539890798
24.5428628483
23.5807974859
23.0316927063
22.9294125469
23.2776084965
24.0516154059
25.2021441535
26.6603951222
28.3441499416
30.1643595171
32.0317451803
33.8629599811
35.5859138399
37.1439464178
38.4986322693
39.6311067198
40.5419126534
41.2494688763
41.7873524028
42.2006591749
42.5417575218
42.8657749126
43.2261569194
43.6706171362
44.2377482594
44.9545053499
45.8346989751
46.8785542218
48.073313397
49.3947858011
50.8096828491
52.2785296558
53.7589098171
55.2087892073
56.589669122
57.8693439288
59.0240774561
60.0400610017
60.9140764857
61.6533479731
62.2746252322
62.8025969175
63.267776654
63.7040352031
64.1459731596
64.6263302151
65.1736180828
65.8101394788
66.5505209184
67.4008456177
68.3584256195
69.4122054603
70.5437445226
71.7286845253
72.9385812498
74.1429543919
75.3114048741
76.415646006
77.4313105194
78.3394165799
79.1274047224
79.7896922952
80.3277287876
80.7495703731
81.0690252855
81.3044493451
81.4772920721
81.6105055867
81.7269330155
81.8477877827
81.9913247088
82.1717836795
82.3986641797
82.6763615643
83.0041717903
83.3766424275
83.7842268806
84.2141797656
84.6516177642
85.0806651353
85.4856003971
85.8519271326
86.1673018916
86.4222655986
86.6107424708
86.730289797
86.7820982051
86.7707601885
86.7038397487
86.5912844949
86.4447313034
86.2767578463
86.1001336536
85.9271161636
85.7688332477
85.6347821414
85.5324645383
85.4671666869
85.4418814399
85.4573615538
85.5122866802
85.6035182992
85.7264182652
85.8752031096
86.0433097091
86.2237493581
86.4094349572
86.5934686307
86.7693822394
86.9313304241
87.0742357432
87.1938935247
87.28704035
87.351394439
87.3856731519
87.3895920792
87.363848091
87.3100880128
87.2308596371
87.1295423358
87.0102542025
86.8777319562
86.7371825157
86.5941049667
86.4540867168
86.3225797378
86.2046654534
86.1048215402
86.0267023833
85.9729516038
85.9450581098
85.9432726475
85.9665929752
86.0128258438
86.0787274774
86.1602181937
86.2526622732
86.3511989715
86.4511031903
86.5481545719
86.6389891301
86.7214090215
86.794627043
86.8594248562
86.9182111284
86.9749703658
87.0351028517
87.1051610932
87.1924960531
87.3048361639
87.4498238295
87.634538864
87.8650413529
88.1459645263
88.4801856286
88.8685977861
89.3100001829
89.801116548
90.3367398026
90.9099961779
91.5127131823
92.1358661265
92.7700755175
93.4061213068
94.0354415143
94.650581209
95.2455640126
95.8161601049
96.3600368011
96.8767810676
97.3677949301
97.8360739821
98.2858860172
98.7223721707
99.1511032828
99.5776204559
100.00699524
100.443438783
100.889988917
101.348295277
101.818517205
102.299340195
102.788108779
103.281062716
103.773660215
104.26096157
104.73804407
105.200417303
105.644407
106.067478123
106.468472461
106.847742001
107.207166197
107.550050911
107.880912708
108.205162997
108.528711364
108.857513825
109.197096806
109.552086386
109.92577524
110.319755965
110.733645126
111.164915062
111.608847623
112.058610483
112.50545386
112.939015614
113.347716529
113.719222223
114.040944794
114.300554604
114.48647521
114.588332463
114.597336452
114.506576232
114.311216952
114.008592782
113.598196076
113.081570848
112.462121827
111.744857676
110.93608861
110.043098147
109.073812493
108.036486921
106.939426678
105.790756453
104.598246336
103.369198765
102.11039578
100.828100979
99.5281067325
98.2158141246
96.8963314907
95.574577353
94.255373306
92.9435148966
91.6438103678
90.3610818684
89.1001254996
87.8656339575
86.6620852733
85.4936068675
84.3638271129
83.2757256384
82.2314965798
81.2324389052
80.2788823884
79.3701613772
78.5046397371
77.6797899093
76.8923254856
76.1383791051
75.4137182242
74.7139868686
74.0349589073
73.372787885
72.7242380394
72.0868824478
71.4592554038
70.8409501482
70.2326562711
69.6361331407
69.0541224652
68.490204504
67.9486073917
67.43398148
66.9511526518
66.5048689547
66.0995574833
65.7391042713
65.4266705059
65.1645553673
64.9541114355
64.79571719
64.6888058281
64.6319462802
64.6229687526
64.6591254076
64.7372742023
64.8540724995
65.0061673723
65.1903690776
65.4037969424
65.6439878609
65.9089619947
66.1972414656
66.5078237073
66.8401114248
67.1938061281
67.5687748197
67.9649001084
68.3819251493
68.8193069649
69.2760881997
69.7507995336
70.2413992049
70.7452571312
71.2591842243
71.779508008
72.3021909293
72.8229846156
73.337610259
73.8419556097
74.3322755537
74.8053832054
75.2588204247
75.6909957204
76.1012794118
76.4900499656
76.8586866667
77.2095079848
77.5456566205
77.8709379838
78.1896175209
78.5061904712
78.8251338045
79.1506539856
79.4864447473
79.8354672913
80.1997657132
80.580327743
80.9769989141
81.3884537431
81.8122280188
82.2448101055
82.6817868911
83.1180368069
83.5479612772
83.9657415673
84.3656101575
84.7421205194
85.090403804
85.4063984048
85.6870422637
85.9304174782
86.1358412657
86.3038989404
86.436417975
86.5363851545
86.6078116676
86.6555541571
86.6850998856
86.7023286367
86.713261512
86.7238113808
86.7395442602
86.7654647278
86.8058338813
86.8640267483
86.9424355261
87.0424201164
87.1643063381
87.3074292156
87.470215946
87.6503032233
87.8446797235
88.0498454966
88.2619782677
88.4770981451
88.6912231921
88.9005083399
89.1013623022
89.2905389888
89.4652025672
89.622966109
89.7619059903
89.8805560082
89.9778851338
90.0532651715
90.1064334102
90.1374550624
90.1466902401
90.1347689869
90.102575208
90.0512407093
89.9821480263
89.8969393267
89.7975279811
89.6861073222
89.5651525583
89.4374112013
89.3058772089
89.1737454083
89.0443453483
88.9210537966
88.8071881431
88.7058840693
88.6199622426
88.5517924479
88.5031611317
88.4751525608
88.468049737
88.4812651547
88.5133059861
88.5617799318
88.62344315
88.6942912473
88.7696907535
88.8445461261
88.913494921
88.971122956
89.0121883099
89.0318425016
89.0258381603
88.990713143
88.9239402212
88.8240354293
88.6906198579
88.524431706
88.3272903
88.1020132431
87.8522931461
87.5825414609
87.2977083206
87.0030893507
86.704130171
86.4062375329
86.1146076049
85.8340784123
85.5690128437
85.3232149598
85.0998797558
84.9015769108
84.7302624356
84.587314907
84.4735887784
84.3894773707
84.3349792761
84.3097593148
84.313201474
84.3444460239
84.4024115091
84.4857997413
84.5930853858
84.7224950425
84.8719793017
85.0391835948
85.2214252656
85.4156821109
85.618598822
85.8265157205
86.035521395
86.2415313488
86.4403905784
86.6279964772
86.800436389
86.9541336044
87.0859933696
87.1935385114
87.2750268718
87.3295435335
87.3570587178
87.3584477584
87.3354690065
87.2907011591
87.2274405726
87.1495632117
87.0613594101
86.9673486549
86.8720847952
86.7799623247
86.6950340524
86.6208493697
86.5603207154
86.5156262261
86.4881505709
86.4784671843
86.4863588069
86.5108741853
86.5504146783
86.6028438983
86.6656115907
86.7358838687
86.8106695673
86.886937733
86.9617180351
87.0321816192
87.0956983382
87.1498717844
87.1925546632
87.2218480056
87.2360900143
87.2338411806
87.2138710794
87.1751545451
87.1168813716
87.0384834623
86.9396795402
86.8205376038
86.6815505266
86.5237195543
86.3486376274
86.1585629928
85.9564739006
85.7460938908
85.5318800875
85.318966144
85.1130562375
84.9202688326
84.7469330003
84.5993428268
84.4834806815
84.4047223384
84.3675385648
84.3752127053
84.4295916537
84.5308871418
84.6775446145
84.8661914497
85.0916744775
85.3471913697
85.6245126408
85.9142899838
86.2064361948
86.4905618499
86.7564447219
86.994508939
87.1962865463
87.3548355881
87.4650908914
87.5241246051
87.5312998451
87.4883068261
87.3990766249
87.2695742701
87.1074826906
86.9217921808
86.7223190841
86.5191798544
86.3222510197
86.1406462973
85.9822406716
85.8532707093
85.7580340366
85.6987062703
85.6752861375
85.6856709341
85.7258574675
85.7902560475
85.872096937
85.9639027838
86.0579981153
86.1470216748
86.2244098095
86.2848194565
86.3244636723
86.3413375315
86.3353209723
86.308150299
86.2632620517
86.2055196538
86.1408386349
86.0757384997
86.0168494824
85.9704072356
85.9417706808
85.9349953097
85.9524912911
85.994790814
86.0604427247
86.1460428421
86.2463999754
86.3548297142
86.4635577309
86.564209603
86.6483563036
86.7080795814
86.7365228311
86.728391011
86.6803661305
86.5914119676
86.4629446787
86.2988574884
86.1053948992
85.8908818653
85.6653223435
85.4398888987
85.2263331111
85.0363511906
84.8809421926
84.769795941
84.7107474094
84.7093292287
84.7684483575
84.8882063824
85.0658726031
85.296012118
85.5707582971
85.8802157706
86.2129678343
86.5566583038
86.8986147448
87.2264757597
87.5287877378
87.7955384157
88.0185977189
88.1920454598
88.3123687275
88.3785250007
88.391870785
88.3559660596
88.2762706009
88.1597557079
88.0144568672
87.8489972222
87.672111661
87.492198776
87.3169261935
87.1529093935
87.005478329
86.8785403755
86.7745397346
86.6945084001
86.6381975471
86.6042748391
86.5905657512
86.5943196475
86.6124789435
86.641930999
86.6797260146
86.7232467736
86.770321684
86.8192772662
86.8689322781
86.9185399845
86.9676880682
87.0161717045
87.0638541336
87.110530926
87.1558144808
87.1990501792
87.2392759905
87.2752299654
87.3054077282
87.3281662644
87.3418669908
87.3450458597
87.3365958977
87.3159457862
87.2832192293
87.2393576049
87.1861932643
87.1264626949
87.063753512
87.002385296
86.9472259257
86.9034545636
86.8762828595
86.8706511543
86.890920752
86.9405804355
87.0219882242
87.1361663386
87.2826653207
87.4595086124
87.6632223921
87.8889522067
88.130661344
88.3814001326
88.6336323633
88.8795974197
89.111688953
89.3228261212
89.506795798
89.6585447033
89.7744043762
89.8522361442
89.8914872213
89.8931564589
89.8596731994
89.7946968304
89.7028518352
89.5894156021
89.4599785597
89.3200994204
89.1749766362
89.0291556283
88.8862895843
88.748966424
88.6186126741
88.4954763153
88.3786874226
88.2663901377
88.1559353567
88.044119384
87.9274506735
87.8024273474
87.6658061408
87.5148453511
87.3475075421
87.1626099237
86.9599141126
86.7401523563
86.5049910308
86.256937391
85.9991974335
85.7354981166
85.4698868292
85.2065231621
84.9494794698
84.7025615642
84.4691625031
84.2521572498
84.0538436082
83.8759316412
83.7195775881
83.5854583586
83.4738769115
83.3848883077
83.3184352669
83.27447893
83.25311495
83.2546645922
83.2797317723
83.3292234145
83.4043292324
83.5064631147
83.6371712799
83.7980132194
83.990427036
84.2155872641
84.4742677463
84.7667206907
85.0925791806
85.4507936316
85.839604435
86.2565539767
86.6985360118
87.1618790777
87.6424578829
88.1358223274
88.6373374999
89.1423217276
89.6461753149
90.1444919071
90.6331449815
91.1083475189
91.5666836583
92.0051139217
92.4209601464
92.8118754029
93.1758075634
93.5109649204
93.8157920534
94.0889627088
94.3293946076
94.5362874196
94.709181786
94.848035192
94.9533077859
95.0260460015
95.0679524476
95.0814292788
95.0695828907
95.0361816896
94.9855571566
94.9224478384
94.8517878747
94.7784478641
94.706942439
94.6411209132
94.5838638413
94.5368087993
94.5001298815
94.4723957711
94.4505232614
94.4298420124
94.4042767029
94.3666455815
94.3090648046
94.2234398046
94.1020140749
93.9379420704
93.7258470748
93.4623230767
93.1463387294
92.7795084252
92.3662002993
91.9134625711
91.430761386
90.9295346203
90.422583351
89.9233321206
89.4450039873
88.9997638992
88.5978891386
88.2470266176
87.9515945382
87.7123790539
87.5263627504
87.3868091716
87.2836074489
87.2038646944
87.1327134581
87.0542848527
86.9527839746
86.8135923656
86.6243195015
86.3757237996
86.0624323041
85.6833985922
85.242056976
84.7461509243
84.2072389324
83.6399046795
83.0607213377
82.4870398699
81.9356882918
81.4216765527
80.9570066305
80.5496799356
80.2029836408
79.9151185559
79.6792055468
79.4836808935
79.3130592427
79.1490148266
78.9717038859
78.7612314508
78.4991506965
78.1698755261
77.7618926097
77.2686700658
76.6891816522
76.0279930549
75.2948925857
74.5040814613
73.672978931
72.8207287712
71.9665224016
71.1278731478
70.3189856519
69.5493624543
68.8227759778
68.1367105103
67.4823424311
66.8450871306
66.2056950945
65.5418319907
64.8300346497
64.0478982084
63.1763207299
62.2016173586
61.1173169879
59.9254668983
58.6373009403
57.2731679214
55.8616703458
54.4380234406
53.0417058295
51.7135321525
50.4923315788
49.4114607008
48.4954017237
47.7567098061
47.1935631614
46.7881377895
46.5059854252
46.2965287462
46.0947171411
45.8238029805
45.3991222263
44.7326868798
43.7383337828
42.3371272558
40.4626847256
38.066091413
35.1200893682
31.6222670172
27.5970394305
23.0962868725
18.1986101343
13.0072542936
7.64684258356
2.25914522289
-3.00182947846
-7.97508953255
-12.4979090776
-16.4107321444
-19.5614271656
-21.8086487401
-23.0241455277
-23.0939515382
-21.9184991817
-19.411796506
-15.4999045834
-10.1190244171
-3.21355568688
5.26549381765
15.3613784937
27.1114458513
40.5456865253
55.6838695042
72.5312580569
91.0730394907
111.267744389
133.040062411
156.273571871
180.803984061
206.413543143
232.827221636
259.711301279
286.674833041
313.274328541
339.021859108
363.396535247
385.859119503
405.869309717
422.905023565
436.482840603
446.178623044
451.647253877
452.640410934
449.021338499
440.77568345
428.017632772
410.990810302
390.063650176
365.719254415
338.540037417
309.187750117
278.379739138
246.862516133
215.383877883
184.664913716
155.373256958
128.098887538
103.333660228
81.4555416707
62.7182862646
47.2469873514
35.0396259016
25.9744155782
19.8224358077
16.264768631
14.9131257799
15.3327866844
17.066570733
19.6585478001
22.6762434055
25.7302176919
28.4900884273
30.6962989827
32.1672061199
32.8013460016
32.5750223067
31.5356281522
29.7913439458
27.4980381052
24.8443257271
22.0357992053
19.2794475193
16.7692124212
14.6735093265
13.125372365
12.2156807999
11.989702985
12.4469662536
13.5442465453
15.201279169
17.3086339058
19.7370894866
22.3477748986
25.0023383044
27.5724417821
29.947966517
32.0434334918
33.802294683
35.1989179661
36.2382559165
36.9533503622
37.4009713833
37.6558008576
37.8036543717
37.9342779118
38.1342565633
38.4805394912
39.0350155581
39.8404771261
40.918195684
42.2672026683
43.8652462903
45.6712729132
47.6291813688
49.67251717
51.7297221156
53.7295334793
55.6061327321
57.3036832365
58.7799556318
60.0088183131
60.9814646536
61.7063447557
62.2078652283
62.5240051368
62.7030694386
62.7998522279
62.8715120032
62.9734688611
63.1556173423
63.4591096878
63.9139140194
64.5372839701
65.3332046447
66.2928066315
67.3956672222
68.6118613407
69.9045743463
71.2330592413
72.5557064776
73.8329963602
75.0301281878
76.1191513339
77.0804707761
77.9036531327
78.5875120505
79.1395092429
79.5745542185
79.9133266161
80.1802758256
80.4014637586
80.6024251053
80.8062056495
81.0317171409
81.2925190069
81.5960948942
81.9436549342
82.3304505709
82.7465524796
83.1780072133
83.6082639676
84.0197492607
84.3954577549
84.7204376642
84.9830570693
85.1759632081
85.2966712906
85.3477517035
85.3366152835
85.2749273562
85.1777061329
85.0621842277
84.9465250509
84.8484949022
84.7841878527
84.766895896
84.8061999706
84.9073407566
85.0709040417
85.2928332869
85.5647551979
85.8745868345
86.2073702766
86.546271951
86.8736713764
87.1722621446
87.4260936414
87.6214870321
87.7477713275
87.7978020194
87.7682397447
87.6595845029
87.4759775449
87.2247977544
86.9160919887
86.5618836071
86.1754138716
85.7703671346
85.3601298871
84.9571273387
84.5722725809
84.2145528038
83.8907678278
83.6054234903
83.3607718457
83.1569823511
82.9924212755
82.8640104151
82.7676355887
82.6985743213
82.6519130813
82.62293059
82.6074253354
82.6019749495
82.6041177424
82.6124541006
82.6266699992
82.6474910217
82.6765759056
82.7163633213
82.7698857535
82.8405632072
82.9319913032
83.0477339114
83.1911306575
83.3651273362
83.5721328331
83.8139075437
84.0914842265
84.4051223071
84.7542943747
85.1377035552
85.5533295374
85.9985017211
86.4699962497
86.9641541558
87.4770165997
88.0044734654
88.5424207161
89.0869201012
89.6343549749
90.1815757448
90.7260266123
91.2658473344
91.7999422703
92.3280112713
92.8505372702
93.368729031
93.8844190831
94.3999196817
94.9178427136
95.4408919661
95.9716392409
96.5122971059
97.0645029422
97.6291292931
98.2061337791
98.7944612913
99.3920089151
99.9956588551
100.601382989
101.204415043
101.799483817
102.381096691
102.943857199
103.482797407
103.993705399
104.473425003
104.920107894
105.33339882
105.714538336
106.066370822
106.393254114
106.700870331
106.995944419
107.28588352
107.578354836
107.880825745
108.200092271
108.541822357
108.910142231
109.307291934
109.733372763
110.186203214
110.6612958
111.151959539
111.649523322
112.143672499
112.622879827
113.0749092
113.487363091
113.848244444
114.146500994
114.37252097
114.518552447
114.579022271
114.550736659
114.432952515
114.227315946
113.937673451
113.569767204
113.130834611
112.629135601
112.073437749
111.472491041
110.834522723
110.166784207
109.475176041
108.763973884
108.035670143
107.290940602
106.528735788
105.746489249
104.940430252
104.105978244
103.23819334
102.33225403
101.38393062
100.390024588
99.3487454162
98.2600002718
97.1255786448
95.9492194941
94.7365563812
93.4949441638
92.2331766134
90.9611131193
89.6892355743
88.4281648293
87.1881645057
85.9786621247
84.807817382
83.6821624479
82.6063358861
81.5829255438
80.6124296879
79.693336605
78.8223184228
77.9945262124
77.2039680498
76.4439467529
75.7075305362
74.9880292531
74.2794481377
73.5768921449
72.8768983385
72.1776779624
71.4792545583
70.7834938268
70.0940231126
69.4160482845
68.756080058
68.1215866864
67.5205949541
66.9612624356
66.45144488
65.9982850152
65.6078427601
65.2847878676
65.0321688141
64.851268307
64.7415510934
64.7007032202
64.7247582308
64.8082998043
64.9447272619
65.1265684267
65.3458207159
65.5943034917
65.8640023708
66.1473890781
66.4377041259
66.7291883756
67.0172588605
67.2986215074
67.5713215054
67.8347329034
68.0894914959
68.3373796158
68.581169979
68.8244383398
69.0713555754
69.3264673206
69.5944712575
69.87999964
70.1874135354
70.520614561
70.8828776106
71.2767092602
71.7037325801
72.1646010845
72.6589426511
73.1853325422
73.7412979181
74.3233534114
74.9270672714
75.5471573107
76.1776154889
76.8118609369
77.442915845
78.0636022545
78.6667547177
79.2454410946
79.7931861917
80.3041889674
80.7735246675
81.1973235524
81.5729173373
81.8989462194
82.1754205669
82.4037313563
82.5866093241
82.7280312588
82.8330782657
82.9077500178
82.9587438767
82.9932083931
83.0184819923
83.041830545
83.0701944534
83.1099575741
83.1667479876
83.245279306
83.3492382808
83.4812205637
83.6427170054
83.8341451782
84.0549219901
84.3035709826
84.577853564
84.8749154591
85.1914371405
85.5237811144
85.8681260152
86.2205826452
86.5772865899
86.9344670794
87.2884924473
87.6358953444
87.973382167
88.2978321065
88.6062935912
88.8959834768
89.1642949558
89.4088185121
89.627377975
89.8180818284
89.9793875679
90.110175488
90.20982532
90.2782879589
90.316145235
90.3246486271
90.3057304327
90.261981919
90.1965945598
90.1132641786
90.0160595792
89.9092623573
89.7971843429
89.6839735981
89.5734216304
89.4687831475
89.3726229965
89.2866994465
89.2118956599
89.1482028524
89.0947616152
89.0499576811
89.0115684514
88.9769513083
88.9432614646
88.9076842176
88.8676665047
88.8211291776
88.7666459359
88.7035729212
88.6321202699
88.5533564686
88.4691453184
88.3820158442
88.2949742921
88.2112692507
88.1341272614
88.0664754823
88.0106732931
87.9682724907
87.9398251254
87.9247550428
87.9213066521
87.9265769566
87.9366328313
87.9467103007
87.9514852217
87.9453998814
87.9230253277
87.879438146
87.8105849062
87.7136108567
87.5871288087
87.4314087804
87.2484720344
87.0420801528
86.817616311
86.581861266
86.3426757928
86.108605178
85.888427742
85.6906752165
85.5231515396
85.3924802953
85.3037088463
85.2599936318
85.2623880464
85.3097464401
85.3987522626
85.524070142
85.6786150531
85.8539232557
86.0406047645
86.2288503853
86.4089640026
86.5718892073
86.709698514
86.8160176376
86.886358399
86.9183400685
86.9117884499
86.8687051129
86.7931106081
86.6907704394
86.5688212393
86.4353196521
86.298742689
86.1674682285
86.0492685967
85.9508463361
85.8774404708
85.8325273526
85.8176314506
85.8322588716
85.8739549747
85.9384819906
86.020105444
86.1119692408
86.2065374448
86.2960735004
86.3731279908
86.431004529
86.464175081
86.4686197143
86.4420695616
86.3841394558
86.2963425877
86.1819871865
86.045962392
85.8944269824
85.7344217459
85.5734306659
85.4189175235
85.2778687146
85.156369267
85.0592406021
84.9897619014
84.9494927304
84.9382077038
84.953947386
84.993181627
85.0510761286
85.1218435106
85.1991575643
85.2766031813
85.34813465
85.4085104935
85.4536780118
85.4810816047
85.4898738057
85.4810150759
85.4572537706
85.4229856459
85.3840011305
85.3471334389
85.3198292923
85.30966816
85.3238595185
85.3687492791
85.4493662303
85.5690393178
85.7291093691
85.9287568108
86.1649569396
86.432568698
86.7245539159
87.0323163412
87.3461416904
87.6557134951
87.9506747974
88.22120248
88.4585598446
88.6555942921
88.8071474755
88.9103540583
88.9648084916
88.9725896971
88.9381399384
88.8680044019
88.7704459226
88.6549572751
88.5317006057
88.4109076333
88.3022767749
88.2144038715
88.154282072
88.1269022057
88.1349770629
88.1788076207
88.2562996819
88.3631295914
88.493048116
88.6383041774
88.7901603297
88.9394680612
89.0772647937
89.1953558128
89.286843042
89.3465661751
89.3714284854
89.3605847952
89.3154825177
89.2397496754
89.1389399823
89.0201508352
88.8915389024
88.7617670872
88.6394182078
88.5324147862
88.4474830765
88.3896976274
88.3621372864
88.3656741885
88.3989112752
88.4582714257
88.5382339635
88.6317020114
88.7304761484
88.8258027297
88.9089604672
88.9718460804
89.007520124
89.0106756532
88.9779993186
88.9084005328
88.803092975
88.6655245493
88.5011593184
88.3171270484
88.1217642498
87.9240764432
87.7331593822
87.5576164759
87.4050115601
87.2813924763
87.1909165485
87.135602611
87.115222467
87.1273395395
87.1674884923
87.229481996
87.3058236816
87.3881961342
87.4679914258
87.5368474484
87.5871536562
87.6124956923
87.6080072031
87.5706108855
87.4991337626
87.3942939799
87.2585655121
87.0959319428
86.9115529657
86.7113691425
86.5016763595
86.288701959
86.0782134311
85.875186898
85.6835581041
85.5060709757
85.3442328239
85.1983736465
85.0678025376
84.9510434323
84.8461286085
84.7509251397
84.6634635642
84.58224127
84.506474038
84.4362742382
84.3727399727
84.3179449465
84.2748299923
84.2470014082
84.2384512927
84.2532217552
84.2950364796
84.3669298155
84.4709012003
84.6076241192
84.7762332045
84.9742089477
85.1973716312
85.4399900641
85.6950001064
85.954322923
86.2092628208
86.4509613337
86.6708776527
86.8612642919
87.0156084896
87.1290078122
87.1984568345
87.2230248157
87.2039128629
87.1443866089
87.0495878301
86.9262387189
86.7822553215
86.626297709
86.4672847185
86.3139028622
86.1741423079
86.0548864781
85.9615825666
85.898008984
85.8661544082
85.8662111948
85.8966815189
85.9545850775
86.0357517395
86.1351755738
86.2474057931
86.3669459233
86.488633255
86.6079732477
86.7214071835
86.8264953142
86.9220050263
87.0079004516
87.0852378911
87.1559753583
87.2227137203
87.2883888253
87.3559395935
87.4279776554
87.5064828867
87.592549527
87.6862016676
87.7862937459
87.8905054753
87.9954319932
88.0967663186
88.189562616
88.2685636285
88.3285712678
88.3648352615
88.37343425
88.3516210869
88.298110289
88.2132834525
88.0992987653
87.9600915916
87.8012627166
87.6298569046
87.454042427
87.2827051499
87.1249812272
86.989751796
86.8851309291
86.8179741021
86.7934382201
86.814618756
86.8822875716
86.9947493834
87.147828527
87.3349892879
87.5475882657
87.7752466685
88.0063269571
88.2284894944
88.4293018097
88.5968690625
88.7204521694
88.7910415049
88.8018549455
88.7487321965
88.6304039273
88.4486192097
88.2081226144
87.9164799139
87.5837598641
87.222086065
86.8450802213
86.4672249942
86.1031790919
85.767077113
85.4718520271
85.2286134593
85.0461152005
84.9303402325
84.8842228174
84.9075248342
84.9968716097
85.1459459703
85.3458309597
85.5854831988
85.8523116137
86.1328316658
86.4133614803
86.6807211304
86.9229001689
87.1296568815
87.2930179751
87.407652794
87.471102346
87.4838518821
87.4492425606
87.3732291956
87.2639981711
87.131465526
86.9866851486
86.8411983176
86.7063613982
86.592688108
86.5092437563
86.4631223787
86.4590369014
86.4990419836
86.5824059359
86.705636862
86.862659032
87.0451303974
87.2428804602
87.4444448539
87.6376651688
87.8103207367
87.9507581101
88.048482119
88.0946787875
88.0826427813
88.0080878516
87.8693263361
87.6673112207
87.4055429886
87.0898509947
86.7280644828
86.3295969457
85.9049693957
85.4653029896
85.0218105936
84.5853159866
84.1658276801
83.7721889566
83.4118212075
83.0905700878
82.8126577953
82.5807372896
82.3960387605
82.2585924615
82.1675078941
82.1212854211
82.1181371148
82.1562907105
82.2342566762
82.3510369642
82.5062635113
82.7002553533
82.933992253
83.2090074234
83.5272078775
83.8906362036
84.3011908388
84.7603250301
85.2687474011
85.8261450374
86.4309493479
87.0801625326
87.7692579739
88.4921642524
89.2413357288
90.0079091053
90.781937898
91.5526945278
92.3090245195
93.0397350652
93.7339964251
94.3817375718
94.9740147807
95.5033355643
95.9639224176
96.3519036452
96.6654223986
96.9046614793
97.0717822453
97.1707826867
97.2072814726
97.1882390618
97.1216275521
97.0160658861
96.8804345849
96.7234865685
96.5534689553
96.3777710744
96.2026127521
96.0327841219
95.8714473276
95.7200085894
95.578066976
95.4434425006
95.3122859653
95.1792693501
95.037851387
94.8806122038
94.6996469974
94.4870061341
94.2351645208
93.9375024829
93.5887755529
93.1855513335
92.7265900678
92.2131430664
91.649149742
91.0413108488
90.3990250359
89.7341793348
89.060788936
88.3944943004
87.7519286371
87.1499792262
86.6049739573
86.1318309434
85.7432171145
85.4487628473
85.2543825045
85.1617474227
85.167953386
85.2654154986
85.4420136315
85.6814964649
85.9641372744
86.2676200292
86.5681157775
86.8414967898
87.0646240457
87.2166336733
87.2801431169
87.2423004091
87.0956029542
86.8384249553
86.4752071435
86.0162819958
85.4773291279
84.8784812645
84.2431249856
83.5964607831
82.963906477
82.3694447721
81.8340193577
81.3740888757
81.0004402365
80.7173480397
80.5221493235
80.4052743138
80.3507453312
80.3371245394
80.3388567556
80.3279275953
80.2757293746
80.155011195
79.9417773221
79.6169982953
79.1680089903
78.5894844341
77.8839131613
77.0615192511
76.1396253928
75.141487571
74.0946731372
73.0290895737
71.97480114
70.9597891389
70.0078232066
69.1366053649
68.356336917
67.6688290126
67.0672408339
66.53648672
66.054301269
65.592904557
65.1211569669
64.6070547359
64.0203833752
63.3353270994
62.5328271668
61.602492206
60.5438875237
59.3670726603
58.0923046392
56.7488874034
55.3732080463
54.0060662141
52.6894599749
51.4630407967
50.3604853353
49.4060503435
48.6115761484
47.9741849229
47.474880647
47.0782059106
46.7330405299
46.374549831
45.9272151199
45.3087972761
44.4350194606
43.2246965501
41.605003221
39.5165552243
36.9179836055
33.7897129604
30.1367008213
25.9899667842
21.4068181583
16.4697681233
11.2842315886
5.97516591367
0.682895730977
-4.44158777502
-9.24153091063
-13.5591992147
-17.2402310065
-20.1373041222
-22.1129229774
-23.0412210766
-22.8087646376
-21.3144434035
-18.4686265463
-14.1918403967
-8.41328321757
-1.06952422161
7.89626347174
18.5342157816
30.8865807219
44.9852429871
60.8479186098
78.4730927383
97.8339111207
118.871364568
141.487220807
165.537249958
190.825345951
217.099162993
244.047858654
271.302461453
298.439264239
324.986487497
350.434271933
374.247853243
395.883558275
414.807060749
430.513145168
442.546081955
450.519608488
454.135466936
453.199457695
447.63404421
437.486679581
422.933219299
404.276017655
381.936578341
356.442912466
328.41204816
298.528404996
267.518982301
236.126502366
205.081774227
175.076603554
146.738561219
120.608830762
97.1242001798
76.604043441
59.2428705878
45.108726463
34.1474044376
26.1921336154
20.978107576
18.1609755313
17.3382221407
18.0722294798
19.9137573288
22.4245898099
25.19818509
27.8773131089
30.1678756235
31.8483494871
32.7745663087
32.8798218589
32.1705833978
30.7183047876
28.6480692524
26.1249299678
23.3389153265
20.4896976913
17.7718901949
15.3618471251
13.4067015766
12.0161912288
11.2576151185
11.1540448529
11.6856948118
12.7941524659
14.3890028949
16.3562431834
18.567800391
20.89142906
23.2002782581
25.3814808505
27.3432195823
29.0198599543
30.3748961355
31.4016223814
32.1216079228
32.5812021221
32.8464264984
32.9967066663
33.1179573067
33.2955528497
33.6077025798
34.1196907234
34.8793623983
35.9141244277
37.2296104598
38.810032405
40.6201153613
42.6084046472
44.7116406904
46.8598355668
48.981647281
51.0096446071
52.8850813989
54.5618494445
56.0093527177
57.214137195
58.1802060633
58.9280509706
59.4925205511
59.9197279258
60.2632620049
60.5800048644
60.9258770879
61.3518215189
61.900307976
62.6025913896
63.4768902216
64.5275791092
65.7454111186
67.1087091223
68.5853983834
70.1356954727
71.7152294848
73.2783497208
74.7813708655
76.185522159
77.459398743
78.5807618402
79.5375837436
80.3283005457
80.9612888372
81.4536445615
81.8293876668
82.1172534562
82.3482545763
82.5532058461
82.760398995
82.9935937699
83.2704600635
83.601566661
83.9899658269
84.4313766005
84.914925198
85.4243590268
85.9396208502
86.4386470574
86.8992427149
87.3008889004
87.6263464927
87.8629449177
88.0034721647
88.0466156014
87.9969409409
87.8644310239
87.6636385798
87.4125336786
87.1311471196
86.8401201292
86.5592739518
86.3063054898
86.0957004946
85.9379350303
85.8390120089
85.8003487711
85.8190078205
85.8882338026
85.9982401373
86.1371722916
86.2921628325
86.4503933865
86.6000796854
86.7313076794
86.8366632317
86.91161821
86.9546543841
86.9671296545
86.9529122978
86.9178250595
86.868953802
86.8138848908
86.7599383215
86.7134600111
86.6792321354
86.6600448116
86.6564607915
86.6667863768
86.6872443765
86.7123313375
86.7353225971
86.7488813505
86.7457199866
86.7192566739
86.6642163653
86.5771264445
86.4566704673
86.303872546
86.1221003439
85.9168895551
85.6956053558
85.4669681399
85.2404825914
85.0258144776
84.8321626371
84.6676736602
84.5389417
84.450628072
84.4052273317
84.4029937693
84.4420285741
84.5185184515
84.6271041791
84.7613477863
84.9142625492
85.0788632871
85.2486971641
85.4183145958
85.5836489303
85.7422788171
85.8935557874
86.0385936352
86.180123359
86.3222281492
86.4699826047
86.6290261027
86.8051038089
87.0036118311
87.2291801082
87.4853248772
87.7741951957
88.0964301926
88.4511361438
88.8359823661
89.2474064715
89.6809106661
90.131425745
90.593712649
91.0627708996
91.53422293
92.0046440796
92.4718150022
92.9348767594
93.3943779709
93.852211743
94.3114473752
94.7760697965
95.250646666
95.7399477453
96.2485461218
96.7804292015
97.3386488766
97.9250357523
98.5399976908
99.1824182162
99.8496597378
100.537672458
101.241199677
101.954064526
102.669517154
103.380617209
104.08062359
104.763364201
105.423558665
106.057072965
106.66108695
107.234164049
107.776219207
108.288388019
108.772808715
109.232332002
109.670181336
110.089588247
110.493429149
110.883891934
111.26219359
111.628371128
111.981159963
112.317967707
112.634946611
112.927156863
113.188810976
113.413579943
113.594939574
113.726532902
113.802521864
113.817905389
113.768779532
113.652524202
113.467902886
113.21507072
112.895491217
112.511769517
112.067416197
111.566560139
111.01363295
110.413048678
109.768903186
109.084715646
108.363233291
107.60631136
106.814878241
105.988988061
105.127955682
104.23056438
103.295329569
102.320798329
101.305861716
100.250054547
99.1538216295
98.0187263761
96.8475876585
95.6445309073
94.4149488149
93.1653736165
91.9032673272
90.6367442412
89.3742434535
88.1241742127
86.8945586631
85.6926953053
84.5248670072
83.3961128029
82.3100777938
81.268953697
80.2735096389
79.3232118991
78.4164217736
77.5506572103
76.7228979134
75.9299118103
75.1685785044
74.4361866629
73.7306834083
73.0508587348
72.3964520673
71.768174548
71.1676472706
70.5972596179
70.0599625758
69.5590107419
69.0976760101
68.6789549042
68.3052922442
67.9783443735
67.6988002191
67.4662747456
67.2792844041
67.1353079818
67.030929327
66.9620520597
66.9241714984
66.912684466
66.9232132361
66.9519212881
66.9957947661
67.0528693765
67.1223836708
67.2048458278
67.3020074611
67.4167420893
67.5528354665
67.714700351
67.9070323576
68.1344310017
68.40100914
68.7100185956
69.0635169231
69.4620982734
69.9047084112
70.3885577391
70.9091388039
71.4603505478
72.0347226406
72.6237278504
73.2181622165
73.8085731045
74.3857070535
74.9409509262
75.4667402893
75.9569095567
76.4069638593
76.8142565226
77.178062107
77.4995437131
77.781616051
78.0287156816
78.246493059
78.4414474215
78.6205281038
78.7907263666
78.958683114
79.1303361279
79.310625542
79.5032759777
79.7106628945
79.933769892
80.1722346523
80.4244771134
80.6878979735
80.9591307325
81.2343294127
81.5094698898
81.7806450396
82.0443348105
82.2976332717
82.5384197471
82.7654662408
82.9784750427
83.1780499647
83.3656039277
83.5432144057
83.7134386653
83.8791036592
84.0430884999
84.2081123311
84.3765449969
84.5502510428
84.7304771729
84.9177891392
85.1120595022
85.3125037079
85.5177596111
85.7260011584
85.9350766132
86.1426588838
86.3463953278
86.5440454698
86.733597243
86.9133547025
87.0819906469
87.238564333
87.3825035343
87.513557733
87.631728654
87.7371857613
87.8301770957
87.9109448626
87.9796555433
88.0363523455
88.080934422
88.1131668405
88.132720588
88.1392394725
88.1324296717
88.1121623038
88.0785811793
88.0322039806
87.9740073224
87.905486743
87.8286817474
87.7461631398
87.6609775212
87.576551449
87.4965578027
87.4247512303
87.3647823897
87.3200018818
87.2932667273
87.2867630592
87.3018558894
87.3389780388
87.3975658742
87.476048518
87.5718930792
87.6817035137
87.801369692
87.9262576506
88.0514308969
88.1718902055
88.282816982
88.3798074072
88.4590812541
88.5176556037
88.5534724882
88.5654733709
88.55361681
88.518839316
88.4629637778
88.3885607141
88.2987726019
88.1971131895
88.0872544791
87.972814363
87.8571592065
87.7432319032
87.6334165164
87.5294452733
87.4323544142
87.3424888744
87.2595532221
87.1827057263
87.1106856281
87.0419656013
86.974919003
86.9079876524
86.8398416388
86.7695174414
86.696527296
86.6209328834
86.5433766572
86.4650705616
86.3877429454
86.3135461785
86.2449326043
86.1845056171
86.1348556388
86.0983913414
86.077177736
86.0727902949
86.0861948174
86.1176610442
86.1667151152
86.2321344819
86.3119867641
86.4037093136
86.5042273907
86.6101024849
86.7177042926
86.8233963124
86.9237240667
87.0155964833
87.0964484725
87.164376719
87.2182401265
87.2577192615
87.2833301155
87.2963913135
87.2989461012
87.2936429088
87.2835797233
87.2721209958
87.2626971715
87.2585968451
87.2627645011
87.277613754
87.3048679679
87.3454364984
87.3993359275
87.4656605932
87.5426051907
87.6275397103
87.7171328809
87.8075191598
87.8945007481
87.9737735567
88.0411652143
88.092871408
88.125678346
88.1371574085
88.1258204974
88.0912262521
88.0340297138
87.955971546
87.8598060216
87.749169856
87.6283978541
87.5022948421
87.3758753143
87.254085822
87.1415240083
87.0421708529
86.9591516011
86.894538981
86.8492125169
86.822780633
86.8135729833
86.8187044691
86.8342091579
86.8552381791
86.8763108245
86.8916071089
86.8952852362
86.8818074965
86.8462574895
86.7846292833
86.6940741107
86.5730892177
86.4216394344
86.2412034432
86.0347417897
85.8065886398
85.5622719448
85.3082721907
85.0517333403
84.800140776
84.5609839801
84.341421532
84.1479676673
83.9862150816
83.8606098521
83.7742880707
83.7289817045
83.7249977257
83.7612681563
83.8354668389
83.9441826787
84.0831384077
84.2474397545
84.4318403945
84.6310040523
84.8397507159
85.053271925
85.2673035937
85.4782491103
85.6832471329
85.8801837205
86.0676516317
86.2448631936
86.4115284172
86.5677065256
86.7136474796
86.8496347544
86.9758441541
87.0922306398
87.1984506767
87.2938283654
87.3773668619
87.4478058656
87.5037204997
87.54365333
87.5662701112
87.5705261455
87.5558305722
87.522194821
87.4703513705
87.4018328499
87.3190022376
87.2250285404
87.1238075448
87.019828469
86.9179922202
86.8233917601
86.7410659365
86.6757421798
86.6315825572
86.6119497483
86.6192070347
86.6545652527
86.7179886981
86.8081648173
86.9225424457
87.0574358832
87.2081906782
87.3694021134
87.5351738061
87.6994029035
87.8560741923
87.9995483407
88.1248267499
88.227779628
88.3053243425
88.3555457903
88.3777525547
88.3724695978
88.3413669836
88.2871338629
88.2133053934
88.1240549984
88.023966377
87.9177979905
87.8102559113
87.7057867898
87.6084025434
87.5215450992
87.4479959112
87.3898328943
87.3484324016
87.3245119025
87.3182066203
87.3291695712
87.3566847285
87.3997829596
87.4573481756
87.5282064085
87.6111880765
87.7051611051
87.8090300823
87.9217043698
88.0420392021
88.1687561006
88.3003517174
88.4350058416
88.5704999473
88.7041579235
88.8328172598
88.9528412307
89.06017544
89.1504528678
89.2191449383
89.2617538516
89.2740379423
89.2522580822
89.193431544
89.0955774565
88.9579356161
88.7811448886
88.5673639142
88.320323505
88.0453006759
87.7490094619
87.4394088991
87.125431855
86.8166456303
86.5228581058
86.2536868682
86.0181134308
85.8240455569
85.6779102862
85.5843030373
85.5457109555
85.5623304765
85.6319905021
85.7501900529
85.9102523467
86.1035883168
86.3200618337
86.5484375537
86.7768916192
86.9935586455
87.187087494
87.3471762577
87.4650596147
87.5339212372
87.5492098785
87.5088412733
87.4132751464
87.2654630948
87.0706709576
86.8361848808
86.5709172711
86.284935198
85.9889374685
85.6937096794
85.4095873683
85.1459559033
84.9108155347
84.7104343124
84.5491072074
84.4290327275
84.3503109448
84.3110614958
84.3076506213
84.3350118652
84.3870396256
84.4570282083
84.5381306676
84.623807629
84.7082397853
84.7866786493
84.8557156586
84.9134552298
84.959582262
84.9953233479
85.023305785
85.0473261078
85.0720449645
85.1026286223
85.1443614122
85.2022553397
85.2806795909
85.3830355355
85.511495365
85.6668207699
85.8482711556
86.0536049225
86.2791730479
86.5200969663
86.7705179195
87.0239014976
87.273377654
87.5120950584
87.7335673775
87.9319932363
88.102530134
88.2415087262
88.3465768303
88.4167680533
88.4524941884
88.4554654102
88.4285469029
88.3755627504
88.3010617776
88.2100604264
88.1077796993
87.9993903987
87.8897806414
87.7833568784
87.6838873409
87.5943913969
87.5170775812
87.4533286389
87.4037280814
87.3681232853
87.3457160795
87.3351715617
87.3347373773
87.3423634803
87.3558174302
87.3727891025
87.3909800455
87.4081782459
87.422317103
87.4315210185
87.4341407734
87.4287815309
87.4143273124
87.3899653114
87.3552123332
87.3099426276
87.2544182795
87.1893180784
87.1157620552
87.0353269867
86.9500471686
86.8623948134
86.7752353907
86.6917536955
86.615349158
86.5495004295
86.49760169
86.4627765824
86.4476773082
86.4542798586
86.4836876104
86.5359561697
86.609953028
86.7032653434
86.812167429
86.9316560348
87.0555595662
87.176722022
87.2872594859
87.378880036
87.4432572286
87.4724386822
87.4592717631
87.397823488
87.283772942
87.1147519321
86.8906130754
86.613606599
86.2884512653
85.9222907249
85.5245308619
85.1065616181
84.6813722663
84.2630759935
83.8663652327
83.5059217651
83.195812041
82.9488966767
82.776284594
82.6868605899
82.6869109911
82.779867886
82.9661849131
83.243352345
83.6060504844
84.046432965
84.5545242242
85.1187099308
85.7262930486
86.3640844552
87.0189967238
87.6786068475
88.3316593765
88.9684817215
89.5812916993
90.1643811343
90.7141688975
91.2291236946
91.7095654356
92.1573607885
92.575534789
92.9678253149
93.3382104566
93.6904404079
94.0276046549
94.3517622716
94.6636597114
94.9625531615
95.2461472204
95.5106536164
95.7509651882
95.9609335338
96.1337321036
96.2622817238
96.3397104313
96.3598176567
96.3175149534
96.2092127609
96.0331306336
95.7895119172
95.4807279635
95.1112677732
94.6876122455
94.2180028576
93.712118085
93.1806787044
92.6350036522
92.0865450126
91.5464264855
91.0250121698
90.5315279667
90.0737536967
89.6577997662
89.2879751545
88.9667492926
88.6948023771
88.4711540786
88.2933581754
88.1577446613
88.0596918356
87.9939090861
87.954712454
87.9362782569
87.9328627026
87.9389806356
87.9495385351
87.9599238091
87.966053589
87.9643913128
87.9519402766
87.9262230771
87.8852583128
87.8275402581
87.7520286149
87.6581500663
87.5458115834
87.4154197298
87.2678998441
87.1047063062
86.9278124987
86.7396721302
86.5431418224
86.3413612311
86.1375871503
85.9349870353
85.7363984583
85.5440680882
85.3593872679
85.1826450873
85.012821591
84.8474434591
84.6825221383
84.5125911676
84.3308522117
84.1294347648
83.899761649
83.6330073988
83.3206257193
82.9549148409
82.5295845161
82.0402840451
81.4850486669
80.8646270816
80.182654209
79.4456459339
78.6628007452
77.8456076803
77.007273846
76.161998413
75.3241352364
74.5072933058
73.7234379545
72.9820543884
72.2894376347
71.6481681962
71.0568212713
70.5099437383
69.9983162252
69.5094967208
69.0286223198
68.5394251636
68.0253982003
67.4710345651
66.8630514156
66.1915087902
65.4507319737
64.6399592994
63.7636491568
62.8314047075
61.857497437
60.860000876
59.8595738255
58.8779607237
57.9362997858
57.0533505766
56.2437604873
55.5164972706
54.8735659138
54.3091151813
53.8090163208
53.3509660795
52.9051330358
52.4353277635
51.9006399075
51.2574537637
50.4617212281
49.4713537441
48.248582246
46.7621343702
44.9890914081
42.9163078483
40.5413110634
37.8726374485
34.929606043
31.7415768182
28.3467848759
24.7908768878
21.1253067857
17.4057614011
13.6907891203
10.0407889824
6.51748895013
3.18399903952
0.105469320908
-2.64967891072
-5.0080473107
-6.88924158854
-8.2037586735
-8.85104277971
-8.71800261635
-7.67828614639
-5.59259583879
-2.31028554259
2.32758291332
8.4836312756
16.3180103739
25.9808215089
37.6033490588
51.2884544986
67.1005822385
85.0559102977
105.113234638
127.166198218
151.037465644
176.475391171
203.153640589
230.674104274
258.573286208
286.3321782
313.38944255
339.157533804
363.041211083
384.457731123
402.857879398
417.746907258
428.704398695
435.402095351
437.618769311
435.251343028
428.321615379
416.978148506
401.493098512
382.254016842
359.750898159
334.558990801
307.318102224
278.70931117
249.430135649
220.169285242
191.582149159
164.268132776
138.75085817
115.462094013
94.7300843734
76.7727169095
61.6957205365
49.4958252689
40.0685663415
33.2201872979
28.6829040418
26.1326384521
25.2082354175
25.5311340949
26.724481224
28.4307449513
30.3270104373
32.1372992453
33.6414500303
34.6803082389
35.1571915277
35.0358071891
34.3349881234
33.1207744083
31.4964908138
29.5915459941
27.5497111438
25.5176184021
23.6341591282
22.021363179
20.77721179
19.9706865159
19.6391952297
19.7883580082
20.3939844076
21.4059444331
22.7535309458
24.3518407827
26.1086666616
27.9313896221
29.7333974054
31.4396160126
32.9908308091
34.3465757845
35.4864850783
36.4101132594
37.1353378218
37.6955511199
38.1359204625
38.5090456951
38.8703656016
39.2736624367
39.766985224
40.3892638841
41.167820797
42.1169077925
43.2373166863
44.5170279166
45.9327880977
47.4524452762
49.0378249714
50.6478992227
52.2419941187
53.7827923996
55.238914165
56.5869038927
57.8125031933
58.9111504093
59.8877083851
60.7554815089
61.5346325208
62.2501519144
62.9295569462
63.6005110528
64.2885518652
65.0150989093
65.7958812961
66.6398891635
67.5489065245
68.5176364772
69.5343831081
70.5822129031
71.6404853014
72.6866176933
73.6979368897
74.6534701682
75.5355371564
76.3310269174
77.0322716859
77.6374638947
78.1506030511
78.5809915375
78.9423361428
79.2515384877
79.5272810623
79.7885253938
80.0530420375
80.3360869401
80.6493211297
81.0000499882
81.3908300732
81.8194626576
82.2793602858
82.7602466413
83.2491230532
83.7314186256
84.1922269896
84.617531166
84.9953209715
85.3165180488
85.5756425001
85.7711763025
85.9056032827
85.9851311918
86.0191264987
86.0193135988
85.9988067283
85.9710540042
85.9487785782
85.9429990565
85.9622042853
86.0117425566
86.0934688311
86.2056721169
86.3432835067
86.4983441072
86.6606922638
86.8188148814
86.9607938981
87.0752765793
87.1523951245
87.1845666809
87.1671170089
87.0986817493
86.9813590828
86.8206055543
86.6248851552
86.4050995918
86.1738442885
85.9445431842
85.7305282525
85.5441262877
85.3958185889
85.2935302425
85.2420966083
85.2429417704
85.2939859046
85.3897865819
85.5218986085
85.6794257046
85.8497240818
86.0192087697
86.1742074445
86.3018059694
86.3906317856
86.431527107
86.4180713153
86.3469261461
86.217985421
86.0343292394
85.8019910173
85.5295593885
85.2276474899
84.9082660762
84.5841456979
84.2680510524
83.9721308155
83.7073403337
83.4829702948
83.3063035056
83.1824148871
83.1141187954
83.1020567245
83.1449125691
83.239732514
83.3823233897
83.5676971798
83.7905304894
84.0456063982
84.3282111741
84.6344608213
84.9615393469
85.3078372398
85.6729850351
86.0577856766
86.4640545027
86.8943805974
87.3518304484
87.8396150138
88.3607437839
88.9176915326
89.5120979408
90.1445207014
90.8142570607
91.5192445521
92.2560479812
93.0199312406
93.805010389
94.6044772927
95.4108822029
96.2164578761
97.0134655879
97.7945466453
98.5530564672
99.2833662309
99.9811155679
100.643402825
101.268904258
101.857916785
102.412323339
102.93548422
103.432059718
103.907775074
104.369139628
104.823134889
105.276887557
105.737341667
106.210946862
106.703374437
107.21927464
107.762083727
108.333887472
108.935343969
109.565665773
110.222659395
110.902816079
111.60144598
112.312848218
113.030503517
113.747281193
114.455649028
115.147876778
115.81622513
116.453112153
117.051254324
117.603779147
118.10430808
118.547012697
118.926646007
119.238554026
119.478673023
119.643517247
119.730163621
119.736236866
119.659900204
119.499853694
119.255341095
118.926164727
118.512706736
118.015953407
117.437518429
116.779660207
116.04528868
115.237956178
114.361829775
113.421641302
112.422614094
111.370366858
110.27079651
109.129944469
107.95385094
106.748405024
105.519196978
104.271381219
103.009557976
101.737681511
100.45899898
99.1760270411
97.8905668534
96.6037589117
95.3161757325
94.0279479114
92.7389177171
91.4488103293
90.1574163198
88.8647720142
87.5713290927
86.2781022404
84.98678559
83.6998301223
82.4204763034
81.1527378693
79.9013365953
78.6715897901
77.4692541651
76.3003342225
75.1708646055
74.0866760362
73.0531579944
72.07502994
71.1561354058
70.2992684854
69.5060449773
68.77682413
68.110688496
67.5054841134
66.9579208815
66.463728965
66.0178652929
65.6147611599
65.2485990341
64.9136052443
64.6043441204
64.3159980678
64.0446202372
63.7873450107
63.5425451335
63.3099263278
63.0905524754
62.8867990991
62.7022369955
62.5414481475
62.4097838731
62.3130748163
62.2573074335
62.2482826236
62.2912739443
62.3907028132
62.5498474351
62.770601265
63.053295307
63.3965934741
63.7974688593
64.2512626965
64.7518255842
65.29173407
65.8625733863
66.4552715855
67.0604699364
67.6689096326
68.2718156053
68.8612576789
69.4304689302
69.9741060101
70.4884362677
70.9714424746
71.4228397518
71.8440039739
72.2378155159
72.6084275375
72.9609726905
73.3012236793
73.635228614
73.9689401133
74.3078610084
74.656724983
75.0192306368
75.3978433836
75.7936758655
76.2064512498
76.6345517028
77.0751463604
77.5243891119
77.9776731706
78.4299253903
78.8759204823
79.3105967652
79.7293513283
80.128297571
80.5044697233
80.8559627717
81.1819990899
81.4829213448
81.7601129919
82.0158542796
82.2531260966
82.4753755176
82.6862614888
82.8893981741
83.0881146344
83.2852478084
83.4829821219
83.6827458627
83.885170234
84.0901131382
84.2967431075
84.5036749508
84.7091467636
84.9112214762
85.1079985937
85.2978166817
85.479432205
85.6521594837
85.8159609908
85.9714802994
86.120016959
86.2634428289
86.4040681563
86.5444676838
86.68728002
86.8349982584
86.989765491
87.1531944254
87.3262241061
87.5090263554
87.7009689861
87.9006392232
88.1059265552
88.3141570767
88.5222699141
88.727021373
88.9252003974
89.1138372427
89.2903894691
89.4528880851
89.6000333136
89.7312305178
89.8465631989
89.9467050256
90.0327768604
90.1061631359
90.1683006791
90.2204590793
90.2635326754
90.2978632171
90.3231115201
90.3381907382
90.3412719668
90.3298658571
90.3009773501
90.2513266886
90.1776210862
90.0768590159
89.9466449578
89.785489377
89.5930710174
89.3704365577
89.1201204335
88.8461698021
88.5540669043
88.2505494656
87.9433349161
87.6407638296
87.3513819754
87.0834881219
86.8446768488
86.6414061305
86.4786198323
86.3594525029
86.2850375595
86.2544360624
86.2646899643
86.3110023151
86.3870320344
86.4852865705
86.5975866443
86.7155725095
86.8312187882
86.9373215072
87.0279256561
87.0986635447
87.146979588
87.1722263129
87.175625165
87.1600946001
87.129957894
87.090550593
87.0477567335
87.0075060415
86.9752698092
86.9555910487
86.9516839028
86.9651329796
86.9957135317
87.0413494073
87.0982129657
87.1609604849
87.2230891911
87.2773920694
87.3164782634
87.3333249207
87.3218199918
87.2772578219
87.1967525349
87.0795381008
86.9271324093
86.7433519642
86.5341731244
86.3074466684
86.0724833043
85.8395347426
85.6192043649
85.4218242765
85.2568389493
85.1322363442
85.0540618748
85.0260465196
85.0493733563
85.1225958581
85.2417137687
85.4004003061
85.5903640597
85.8018231854
86.0240595499
86.2460183134
86.4569151563
86.6468124068
86.8071309797
86.9310678398
87.0138970903
87.0531390337
87.0485927972
87.0022367604
86.9180073329
86.8014776542
86.6594603826
86.499563994
86.3297339068
86.1578083871
85.991117242
85.8361464713
85.698285654
85.5816691156
85.4891124906
85.4221420721
85.3811050247
85.3653442229
85.3734186224
85.4033454391
85.4528434765
85.5195551358
85.6012298207
85.6958551065
85.8017276556
85.9174624027
86.0419428384
86.1742218671
86.3133869937
86.4584044894
86.6079646759
86.7603434084
86.9132984433
87.0640138205
87.209101708
87.344667874
87.4664390393
87.5699461328
87.6507524453
87.7047113538
87.7282353407
87.718556494
87.6739584625
87.5939616666
87.4794458678
87.3326996682
87.1573896502
86.9584490914
86.7418902693
86.5145510134
86.2837899183
86.057148852
85.8420025346
85.6452164862
85.4728332467
85.3298065233
85.2197965975
85.1450383219
85.1062869665
85.1028427145
85.1326492363
85.1924562316
85.2780341274
85.3844243641
85.506208228
85.6377778096
85.7735924058
85.9084059605
86.0374558578
86.1566044194
86.2624313557
86.3522777034
86.4242447454
86.4771566769
86.5104949372
86.5243168364
86.5191672959
86.4959946519
86.4560779842
86.4009714138
86.33246859
86.2525865104
86.1635658458
86.0678813284
85.9682552708
85.8676657064
85.7693407256
85.6767315195
85.5934576531
85.5232219461
85.469694583
85.4363703043
85.4264031942
85.4424299926
85.4863914742
85.5593667373
85.6614326802
85.7915613025
85.9475660397
86.1261059178
86.3227522464
86.5321190043
86.7480529134
86.9638764319
87.1726713712
87.3675898138
87.5421734373
87.6906646788
87.8082901212
87.8914987386
87.9381419274
87.9475825234
87.9207254818
87.8599683792
87.7690730409
87.652966587
87.5174819318
87.3690538641
87.2143869899
87.0601144521
86.9124683916
86.7769781896
86.6582138457
86.5595877077
86.483223091
86.4298964243
86.3990528421
86.3888922888
86.3965185746
86.4181410778
86.449315496
86.4852100348
86.5208807729
86.5515414447
86.5728143507
86.5809496452
86.5730047094
86.5469762131
86.5018813034
86.4377869802
86.3557903719
86.2579535344
86.147198249
86.0271691727
85.9020716982
85.7764945838
85.6552230931
85.5430521577
85.4446040838
85.3641568809
85.3054882735
85.271738992
85.265297837
85.2877113811
85.3396195643
85.420719775
85.5297593865
85.6645592298
85.8220661204
85.9984368566
86.1891515682
86.3891559999
86.5930284827
86.7951692265
86.9900048461
87.1722029167
87.3368876522
87.4798479172
87.5977272476
87.6881857438
87.7500253227
87.7832688422
87.7891858151
87.7702608214
87.7301018146
87.6732902211
87.6051772014
87.5316333703
87.4587639345
87.3926015086
87.3387948432
87.3023069094
87.287142419
87.296119206
87.3306986769
87.3908868471
87.475213897
87.5807950241
87.7034715644
87.8380264289
87.978462759
88.1183315808
88.2510887635
88.3704618791
88.470804279
88.5474152983
88.5968068908
88.6168989121
88.6071311564
88.5684822108
88.5033946334
88.4156087184
88.3099138015
88.1918319861
88.067253076
87.9420430246
87.8216515087
87.710741989
87.6128694918
87.5302273076
87.4634808616
87.4117017413
87.3724064107
87.3417012388
87.314527097
87.2849896261
87.2467570839
87.1935006444
87.119352612
87.0193516353
86.8898482136
86.7288428189
86.5362330558
86.3139524709
86.0659880878
85.7982724086
85.5184524448
85.2355441926
84.9594922211
84.7006553088
84.4692470184
84.2747639641
84.1254320992
84.0277057891
83.9858474189
84.0016156045
84.074080182
84.1995778909
84.3718138535
84.5821055303
84.8197575455
85.0725494122
85.3273091826
85.5705447074
85.7890965332
85.9707789215
86.1049732926
86.1831429487
86.1992406843
86.1499888504
86.0350175425
85.8568553637
85.6207745521
85.3345022317
85.0078148043
84.6520414237
84.2795052669
83.9029349125
83.5348801734
83.187164191
82.870401846
82.5936098383
82.3639263722
82.1864532704
82.0642225223
81.9982861698
81.9879156393
82.0308926456
82.1238695279
82.2627700348
82.4432024426
82.6608561827
82.9118534415
83.1930327106
83.5021456457
83.8379555384
84.2002315948
84.5896420778
85.0075548245
85.4557612723
85.9361460858
86.4503256296
86.9992837907
87.5830317578
88.2003183455
88.8484137483
89.522984428
90.2180705518
90.9261724846
91.6384429014
92.3449772153
93.0351845486
93.6982202196
94.3234536543
94.9009430619
95.4218897052
95.8790433569
96.2670335203
96.5826068107
96.8247545342
96.9947228005
97.0959035429
97.1336121863
97.1147654361
97.0474766034
96.9405936938
96.8032068099
96.6441538554
96.4715537172
96.2923941314
96.112198773
95.9347925484
95.7621784336
95.5945322619
95.4303151324
95.2664960879
95.0988698489
94.9224510317
94.7319186189
94.5220832509
94.2883485085
94.0271353831
93.7362440182
93.4151276705
93.0650604774
92.689186891
92.2924460001
91.8813730695
91.4637875772
91.0483831096
90.6442440399
90.2603139098
89.904848938
89.5848888244
89.3057775108
89.0707671964
88.880730486
88.7340034356
88.6263740096
88.5512216316
88.4998056795
88.461691085
88.4252901329
88.3784920036
88.3093451432
88.2067531227
88.061141227
87.8650522237
87.6136309104
87.3049649142
86.9402534126
86.5237879793
86.0627392386
85.5667551971
85.0473904765
84.5173968192
83.9899144327
83.4776137318
82.991841367
82.5418268235
82.1340043454
81.771499407
81.4538211657
81.176789118
80.9327079462
80.710790074
80.4978055921
80.2789248621
80.0387034476
79.7621466959
79.4357842367
79.0486781749
78.5932920081
78.066152908
77.4682504018
76.8051327423
76.0866791478
75.3265495555
74.5413372076
73.7494694368
72.9699264629
72.2208601979
71.5182088807
70.8744080051
70.2972957333
69.7893031705
69.3470007758
68.961053879
68.6166098223
68.2941113625
67.970498331
67.6207300805
67.2195327666
66.7432561459
66.1717082179
65.4898331484
64.6890996989
63.7684814027
62.7349347093
61.60331028
60.3956705661
59.1400284916
57.8685623881
56.6154046174
55.4141342442
54.2951342727
53.2829878164
52.3940976185
51.6347038565
50.9994574099
50.4706760183
50.018366853
49.601055795
49.1674074648
48.6585692798
48.0111247093
47.1604949869
46.0445989355
44.6075583287
42.8032325505
40.5983757004
37.975230214
34.9334146713
31.4910058544
27.6847733105
23.5695839475
19.2170483239
14.7135345185
10.1577143655
5.65783616707
1.32892987895
-2.70985650085
-6.33761311708
-9.43357955204
-11.878527012
-13.5555895701
-14.3505874294
-14.1519518664
-12.8504193391
-10.3387088082
-6.51142325442
-1.26542696561
5.49906692743
13.8765031136
23.952951089
35.8019803684
49.4794861869
65.0176152595
82.4180422267
101.644949645
122.618146086
145.206814764
169.224420999
194.425299536
220.503406477
247.093645387
273.776062427
300.08307017
325.509691625
349.526643148
371.595889767
391.188138093
407.801575439
420.98104444
430.336755271
435.561605311
436.446187561
432.890638858
424.912598849
412.650717242
396.363352164
376.422333813
353.30191865
327.563307057
299.835334461
270.792157929
241.128925197
211.536535433
182.676661435
155.158199389
129.516248517
106.194594415
85.532494305
67.7563358117
52.9764879733
41.1893927986
32.2846723948
26.0567708583
22.2204212196
20.4290440092
20.2950486844
21.4109365684
23.3700931829
25.7862103154
28.3103886502
30.6451330592
32.5546546514
33.8711221016
34.4967484635
34.4018388666
33.619151674
32.2351182815
30.3786259635
28.2081736623
25.8982670136
23.6259189622
21.5580687101
19.840632938
18.5897643744
17.885722984
17.7695807841
18.2427879716
19.2694457724
20.7809674219
22.6826703788
24.8617432794
27.1959727029
29.5625972871
31.8466848998
33.9484899581
35.7893498339
37.315796912
38.5017039867
39.3484214326
39.8830038611
40.1547511084
40.2303884626
40.1882914485
40.1122039107
40.0849095812
40.1823003031
40.4682316221
40.9904829622
41.7780491402
42.8398835166
44.1651096839
45.7246117144
47.4738246856
49.3564706181
51.3089313405
53.2649239464
55.1601356577
56.9364974108
58.5458176939
59.9525550903
61.1355817336
62.0888664944
62.821087582
63.354257845
63.7215123023
63.9642577063
64.1289182745
64.2635264123
64.414406084
64.6231747735
64.9242558307
65.3430433685
65.8948088085
66.5843798342
67.4065643727
68.3472415218
69.3849963965
70.4931452187
71.6419780561
72.8010410147
73.9412907178
75.036969847
76.0670869521
77.0164194704
77.8760003714
78.6430903559
79.320676827
79.9165737739
80.4422236778
80.9113178613
81.3383599328
81.7372904406
82.1202819362
82.4967902794
82.8729231345
83.2511579351
83.6304088125
84.0064164757
84.3724076145
84.7199519416
85.0399325519
85.3235393499
85.5631985414
85.7533599929
85.8910798985
85.9763572018
86.0122016488
86.0044384947
85.961272623
85.8926578643
85.8095299411
85.7229708208
85.6433763225
85.5796965436
85.5388099691
85.5250798982
85.5401247514
85.5828161545
85.6494993543
85.7344116433
85.8302612379
85.9289144886
86.0221324025
86.1022955314
86.1630582617
86.1998802786
86.2103951224
86.1945874714
86.1547692153
86.0953598277
86.0224916313
85.9434754368
85.8661720186
85.7983200327
85.7468778554
85.7174301836
85.7137078951
85.7372583498
85.7872914177
85.8607129431
85.9523428808
86.0552993945
86.1615197167
86.2623767073
86.3493443352
86.4146620332
86.4519468832
86.4567086438
86.4267297518
86.3622823206
86.2661688314
86.1435814054
86.0017940036
85.8497086045
85.6972895264
85.5549282976
85.4327823527
85.3401353184
85.2848232702
85.2727659299
85.3076330433
85.390666632
85.5206692267
85.6941535493
85.9056421464
86.1480908658
86.4134059488
86.6930157344
86.9784565042
87.2619334222
87.5368175201
87.7980482922
88.0424164796
88.268712714
88.4777360768
88.6721681219
88.8563245267
89.0358080933
89.2170891182
89.4070461406
89.6125009358
89.839778912
90.0943247292
90.3803974689
90.7008620851
91.0570888644
91.4489598051
91.8749782176
92.332466652
92.8178350173
93.3268952792
93.8551966989
94.3983560777
94.9523587907
95.5138088265
96.0801126463
96.6495848673
97.2214723783
97.7958994046
98.373740869
98.9564384111
99.5457747362
100.143627427
100.751721248
101.371399495
102.003431522
102.647870196
103.303968272
103.970158173
104.644094257
105.32275159
106.002570642
106.679634391
107.349862028
108.009202176
108.653810273
109.280194891
109.885321675
110.466667712
111.022222872
111.550440327
112.050140478
112.520379389
112.96029345
113.368934924
113.745114508
114.087265077
114.393340253
114.660757085
114.886390787
115.06662501
115.197453419
115.27462894
115.293850197
115.250972088
115.142226652
114.964436737
114.715208716
114.393088592
113.997670906
113.529652495
112.990825398
112.384010042
111.712932071
110.982051828
110.1963581
109.361139239
108.481747791
107.563373854
106.610842499
105.628448101
104.619836663
103.587941964
102.534978164
101.462488982
100.371448416
99.2624035029
98.1356484085
96.991417115
95.8300807562
94.6523353223
93.4593665075
92.2529812272
91.0356960044
89.8107785514
88.5822398005
87.3547765873
86.133670963
84.924650891
83.7337234967
82.5669905838
81.4304556505
80.329835685
79.2703846744
78.2567394348
77.292791426
76.3815917288
75.5252886939
74.7250999463
73.9813157702
73.2933325828
72.6597110567
72.0782545951
71.54610451
71.0598472018
70.6156304835
70.2092856635
69.8364535611
69.4927127456
69.1737093492
68.8752879563
68.5936202355
68.3253313882
68.0676213947
67.8183766276
67.5762680455
67.3408300524
67.1125144234
66.8927137128
66.6837474019
66.4888080559
66.3118627709
66.1575105275
66.030796359
65.9369883607
65.8813240932
65.8687372721
65.9035782154
65.9893425576
66.1284246165
66.3219105904
66.5694268176
66.8690561875
67.2173313331
67.6093105905
68.0387373833
68.4982779223
68.9798279065
69.4748731622
69.9748865725
70.4717384272
70.9580961688
71.4277895385
71.8761178658
72.3000787702
72.6985030178
73.0720829063
73.4232908249
73.7561899285
74.0761457648
74.3894549626
74.7029125576
75.0233432713
75.3571265892
75.7097447694
76.085384284
76.4866155992
76.9141740426
77.3668570038
77.8415464573
78.3333571265
78.8359016562
79.341658814
79.8424206177
80.3297916313
80.7957079255
81.2329420253
81.6355604577
81.9993037292
82.321862162
82.6030287894
82.8447173388
83.0508420597
83.2270667706
83.3804363376
83.5189163689
83.6508664733
83.7844849407
83.9272590627
84.0854587372
84.2637073321
84.4646592097
84.6888069659
84.934432976
85.1977109276
85.4729530867
85.7529878185
86.0296458101
86.2943237821
86.5385894771
86.7547889766
86.9366152418
87.0796002445
87.1814965523
87.2425205906
87.2654385879
87.2554862551
87.2201236425
87.1686362414
87.1116059022
87.0602818646
87.0258881171
87.0189110699
87.0484109682
87.1214005281
87.2423304742
87.4127171641
87.6309360886
87.8921986414
88.1887156947
88.5100430498
88.84358952
89.1752612704
89.4902055885
89.7736120519
90.01152544
90.1916228963
90.3039104471
90.3412982921
90.3000215632
90.1798824855
89.9842997245
89.720162112
89.3974955067
89.0289633302
88.6292290803
88.2142173091
87.8003161066
87.4035656533
87.0388786943
86.7193349335
86.4555878345
86.2554137313
86.123424707
86.0609578148
86.0661410741
86.1341273341
86.2574773971
86.4266653477
86.6306741896
86.8576444434
87.0955360434
87.3327659634
87.5587860439
87.7645715208
87.9429956296
88.089075558
88.2000804541
88.2755045327
88.3169138057
88.3276820508
88.3126395959
88.2776598289
88.2292123614
88.173912397
88.1180925081
88.0674227588
88.0265971453
87.9991012147
87.9870702961
87.9912389999
88.0109787727
88.0444141727
88.0886045452
88.1397751983
88.1935798058
88.2453754832
88.2904930645
88.3244877432
88.3433569285
88.3437175144
88.322935814
88.2792106122
88.2116091232
88.1200633413
88.0053323132
87.868937279
87.7130802449
87.5405524281
87.3546397205
87.1590291041
86.9577203136
86.7549421463
86.5550712573
86.3625535703
86.1818218862
86.0172069383
85.8728382093
85.7525319786
85.6596669464
85.5970479884
85.5667637578
85.5700429598
85.6071192983
85.6771148657
85.7779527593
85.9063100517
86.0576214201
86.2261401684
86.4050634118
86.5867217031
86.7628302835
86.9247946202
87.0640600287
87.1724883212
87.2427454443
87.268676395
87.2456496348
87.1708471277
87.0434827218
86.8649321876
86.6387638429
86.3706631918
86.0682514501
85.7408038195
85.3988790274
85.0538783245
84.7175546777
84.4014980676
84.11662355
83.8726894419
83.6778715543
83.5384156385
83.4583869406
83.4395295285
83.4812415856
83.5806663057
83.7328919948
83.931246999
84.1676725167
84.4331488334
84.7181515735
85.0131098312
85.3088409594
85.5969394344
85.8700985238
86.1223498698
86.34921185
86.5477433833
86.7165057181
86.8554405942
86.9656780466
87.0492910659
87.1090173754
87.1479692122
87.1693521199
87.1762122526
87.1712268304
87.1565515067
87.1337315007
87.103679258
87.0667150659
87.0226649451
86.9710032866
86.9110263791
86.842041731
86.7635546012
86.6754370228
86.5780653004
86.4724133958
86.3600956435
86.2433535393
86.1249881386
86.0082425575
85.8966428929
85.7938094078
85.7032508366
85.6281570493
85.5712047325
85.5343904905
85.5189022995
85.5250383141
85.5521792208
85.598815131
85.6626263061
85.7406112823
85.8292536962
85.9247165705
86.0230523166
86.1204141591
86.2132549454
86.2985020627
86.3736978455
86.4370965037
86.4877148124
86.5253322556
86.5504438551
86.5641699499
86.5681292049
86.5642862229
86.5547822416
86.5417615584
86.5272056891
86.5127839559
86.4997324247
86.4887655621
86.4800286042
86.4730901689
86.4669773764
86.4602495224
86.4511064569
86.437523964
86.417407966
86.3887593327
86.349839057
86.2993246198
86.236448461
86.1611101939
86.0739573456
85.976428504
85.8707564863
85.7599295703
85.6476122273
85.5380280463
85.4358079696
85.3458112003
85.2729247644
85.2218498913
85.1968848707
85.2017125552
85.2392033884
85.3112410652
85.418580709
85.5607459978
85.7359727988
85.9412020109
86.1721259934
86.4232884253
86.6882352227
86.9597140207
87.2299145644
87.4907430674
87.7341190851
87.9522834238
88.138105147
88.2853736929
88.3890626637
88.4455532185
88.4528063209
88.4104741891
88.3199442782
88.1843127341
88.0082862256
87.7980157755
87.560869181
87.3051508299
87.0397805158
86.7739469368
86.5167498728
86.2768486769
86.0621320701
85.8794245426
85.7342427437
85.6306120691
85.5709503884
85.5560241351
85.5849752697
85.6554173022
85.7635929775
85.9045843612
86.07256312
86.261067945
86.4632944077
86.6723820027
86.881686825
87.0850257837
87.2768844398
87.4525793201
87.6083713813
87.7415286123
87.8503393691
87.9340803091
87.992944182
88.0279365632
88.0407485712
88.0336167181
88.0091758054
87.9703163207
87.9200500919
87.861392378
87.7972619432
87.730402127
87.6633221605
87.598258085
87.5371507106
87.4816367725
87.4330495343
87.3924255553
87.360513075
87.3377808103
87.3244243764
87.3203696282
87.325273695
87.3385244453
87.3592410243
87.3862777569
87.4182346239
87.4534773891
87.4901688296
87.5263152533
87.5598263556
87.5885890986
87.6105542979
87.6238314748
87.6267895722
87.6181567503
87.5971145581
87.5633789069
87.517263686
87.4597197782
87.3923459865
87.3173680516
87.2375836031
87.1562736643
87.0770829573
87.0038718159
86.9405462038
86.8908721206
86.8582838736
86.8456956625
86.8553258214
86.8885432873
86.9457454401
87.0262754452
87.1283849275
87.249246805
87.385019625
87.5309636656
87.6816045513
87.8309393503
87.9726773485
88.100504644
88.2083609782
88.2907166134
88.3428361044
88.3610146228
88.3427755056
88.2870183243
88.1941079719
88.0659004957
87.9057003606
87.7181506411
87.5090598591
87.2851711694
87.053886146
86.8229530387
86.6001360619
86.3928801119
86.2079881747
86.0513278905
85.9275804365
85.8400470241
85.790520935
85.7792334537
85.8048756831
85.8646962524
85.9546689955
86.0697215292
86.2040131494
86.3512480978
86.5050039658
86.6590605334
86.8077084222
86.946022002
87.0700816182
87.1771319019
87.2656684277
87.3354481619
87.3874239036
87.4236073384
87.4468697258
87.460692128
87.468881634
87.4752708396
87.4834210388
87.4963447976
87.5162674997
87.5444429633
87.5810336752
87.625064772
87.6744537585
87.7261154855
87.7761340802
87.8199930299
87.8528483729
87.8698266234
87.866330137
87.8383289393
87.7826208568
87.6970440692
87.5806268184
87.4336660855
87.2577292292
87.0555790642
86.8310281738
86.5887311004
86.3339298889
86.0721688405
85.8089993269
85.5496939337
85.2989896269
85.0608778267
84.8384550739
84.6338454577
84.4481989918
84.2817671785
84.1340480406
84.0039913282
83.8902470202
83.7914392776
83.7064441563
83.6346493923
83.5761742738
83.5320317847
83.5042179013
83.4957168212
83.5104191295
83.5529529721
83.6284380268
83.7421752317
83.8992919203
84.1043648852
84.3610468771
84.6717222368
85.0372174373
85.4565877937
85.9269987845
86.4437132799
87.0001891655
87.588286939
88.1985754306
88.8207218125
89.4439411611
90.0574805144
90.6511084489
91.2155771744
91.7430316854
92.2273367533
92.6643035221
93.0517996643
93.3897371347
93.6799378334
93.9258862957
94.1323870524
94.3051482574
94.4503203917
94.5740201995
94.6818707463
94.7785894755
94.867649727
94.9510385581
95.0291253396
95.1006485944
95.1628207573
95.2115430246
95.2417140977
95.2476101299
95.2233112984
95.1631449495
95.0621167132
94.9163016278
94.7231700355
94.4818294961
94.193168929
93.8598990079
93.4864886726
93.07900495
92.6448698573
92.1925513631
91.7312099588
91.2703219206
90.819302624
90.3871496926
89.9821221873
89.6114707542
89.2812253473
88.9960440991
88.7591229472
88.5721611953
88.4353756003
88.347552838
88.3061330242
88.3073131416
88.3461648436
88.4167631571
88.5123219334
88.6253400702
88.7477584726
88.8711334806
88.9868320713
89.0862495778
89.1610529841
89.2034463517
89.2064514857
89.1641943201
89.0721796059
88.9275381799
88.729222922
88.4781346
88.1771567875
87.8310843738
87.4464346173
87.0311385784
86.5941199627
86.1447765966
85.6923911784
85.2455048988
84.8112955396
84.3950057944
83.9994675106
83.6247658532
83.2680802216
82.9237283884
82.5834281546
82.2367732624
81.8719052486
81.4763448816
81.037931796
80.5458094059
79.9913823182
79.3691697696
78.6774819735
77.9188544515
77.1001885647
76.2325666919
75.3307322514
74.4122522888
73.4964029546
72.6028463614
71.7501866807
70.9545076735
70.2280045216
69.5778209436
69.0051967729
68.5050113912
68.0657851939
67.6701685334
67.295913141
66.9172825357
66.5068209909
66.0373678257
65.4841777695
64.8269891401
64.0518772713
63.1527349499
62.1322384081
61.0021904017
59.7831685241
58.5034554569
57.1972815238
55.90246064
54.6575528679
53.4987290615
52.4565461677
51.5528615676
50.7981193386
50.1892262134
49.7082095152
49.321803125
48.9820521086
48.6279596588
48.1881320642
47.584306161
46.73558028
45.5631173439
43.9950454556
41.9712645182
39.4478616647
36.4008604327
32.8290670428
28.7558322776
24.2296192893
19.3233453097
14.1325494075
8.77251614027
3.37455560402
-1.91830356234
-6.95591488678
-11.5856028216
-15.6564411189
-19.0229600417
-21.5480749777
-23.1051040597
-23.5788277533
-22.8656360939
-20.8729011445
-17.5177905047
-12.7258059108
-6.42937156582
1.43318714171
10.9179488013
22.0747056257
34.9450719562
49.5592862337
65.9317187581
84.0552253705
103.894617632
125.37963856
148.397935395
172.788596306
198.336850463
224.7705334
251.758868143
278.914023508
305.795780306
331.919467538
356.767143988
379.801792563
400.484092
418.291135127
432.736297789
443.389331927
449.895674848
451.993944961
449.530627032
442.471045635
430.905883445
415.052700142
395.252155738
371.958909618
345.72744897
317.193376208
287.050937825
256.027794308
224.85819366
194.255813866
164.88757198
137.349659764
112.146955401
89.6767874
70.2177967668
53.9243726692
40.826840531
30.8372752174
23.7605160135
19.3096901899
17.1253260039
16.7969623437
17.8860559592
19.948950762
22.5587055875
25.3246821891
27.9089547036
30.0388169601
31.5149118198
32.2147719393
32.0918366286
31.1702645069
29.5360923356
27.325478172
24.710900607
21.886266057
19.0518886829
16.4002661218
14.1034730681
12.3028505066
11.101485363
10.5597728906
10.6941415811
11.4788129424
12.8502794914
14.7140283404
16.9529149435
19.4365208142
22.0308008249
24.6073463125
27.0516574618
29.2699183718
31.1939006761
32.7837720646
34.0287406883
34.9456219231
35.5755528701
35.9791961248
36.2308615632
36.412025143
36.6047437206
36.8854399782
37.3194822991
37.9569045899
38.8295079584
39.9494774946
41.3095275032
42.8844816162
44.6340902561
46.5068132613
48.4442362364
50.3857596393
52.2732023034
54.0549811201
55.6895782958
57.1480767909
58.4156211148
59.4917492878
60.3896278856
61.1343008626
61.7601319493
62.3076710427
62.8202080475
63.3402872926
63.9064467835
64.5504174181
65.2949699014
66.1525447676
67.1247310466
68.2025952288
69.3677974572
70.5943761046
71.8510364829
73.1037485444
74.3184446812
75.4636087677
76.51256505
77.4453086249
78.2497562994
78.9223478197
79.467979894
79.8993031182
80.2354627442
80.5003986049
80.7208513152
80.9242343196
81.1365379679
81.38042058
81.673623852
82.027815761
82.4479326013
82.9320485565
83.4717623549
84.0530525587
84.6575188913
85.2639037808
85.8497695419
86.3932027605
86.8744199038
87.2771582412
87.5897627473
87.805898347
87.9248552365
87.9514394215
87.8954761912
87.7709780186
87.595053628
87.3866479027
87.1652107406
86.9493954056
86.7558767066
86.5983683243
86.486899595
86.4273894377
86.4215313328
86.4669798972
86.5578077986
86.6851843162
86.8382122273
87.004850969
87.1728535124
87.3306472934
87.4680968425
87.5771005114
87.6519857604
87.6896893447
87.6897229789
87.6539437886
87.5861615734
87.4916256783
87.3764428843
87.2469785873
87.1092913506
86.9686476925
86.8291514543
86.6935142674
86.562977039
86.4373816395
86.3153786182
86.1947449727
86.072779304
85.9467355815
85.814254473
85.6737535422
85.5247406799
85.3680248966
85.2058048933
85.0416297013
84.8802338786
84.7272607981
84.58889794
84.4714521228
84.380900615
84.3224533636
84.3001603695
84.3165961163
84.3726454658
84.4674071967
84.5982239237
84.7608355828
84.949645939
85.1580811268
85.3790169943
85.605242658
85.8299277742
86.0470609085
86.2518296829
86.4409167447
86.6126930371
86.7672982914
86.9066040762
87.0340667143
87.1544824465
87.2736651244
87.3980703382
87.5343944399
87.6891758081
87.8684275164
88.0773228321
88.3199549489
88.5991829381
88.9165706926
89.2724177945
89.6658750313
90.0951302079
90.5576468871
91.0504337744
91.5703211381
92.1142221967
92.6793582233
93.263429624
93.864720239
94.4821296972
95.1151311714
95.7636610558
96.4279506246
97.1083155656
97.8049222688
98.5175513311
99.245379956
99.9868013453
100.739299964
101.499394514
102.262656289
103.023805285
103.776880331
104.515472867
105.233011562
105.923078853
106.579738024
107.197849852
107.773355639
108.303506955
108.787026432
109.22418595
109.616795178
109.968099144
110.282589591
110.565738913
110.823672813
111.062798636
111.289412102
111.509304683
111.72739431
111.947399565
112.171577554
112.400537423
112.633141137
112.866495349
113.096032763
113.315678116
113.518086636
113.694941908
113.837295297
113.935927108
113.981711381
113.965964111
113.880759758
113.719200868
113.475630588
113.145782075
112.726861485
112.217567327
111.618050871
110.929825748
110.155637726
109.299306082
108.365549996
107.359810754
106.288079972
105.156744712
103.972452983
102.7420048
101.472269172
100.17012532
98.8424234832
97.4959604214
96.1374631398
94.7735731309
93.4108253473
92.055615941
90.714154268
89.3923995016
88.0959804838
86.8301015887
85.5994402227
84.4080410159
83.2592156645
82.1554558724
81.0983676505
80.088634072
79.1260128662
78.2093722774
77.3367676642
76.5055572134
75.7125530265
74.954201708
74.226786616
73.5266408985
72.8503603263
72.1950047263
71.5582756617
70.9386613665
70.3355389548
69.7492294153
69.1810002272
68.6330152906
68.1082364061
67.6102784923
67.1432285417
66.7114373476
66.3192957483
65.9710076568
65.6703714909
65.4205828242
65.2240677127
65.0823548564
64.9959934742
64.964520362
64.9864754608
65.059465564
65.1802696125
65.3449805091
65.5491733208
65.78809119
66.0568375493
66.3505647458
66.6646502285
66.9948511054
67.3374300373
67.689247624
68.0478191334
68.411334233
68.7786415728
69.1492003447
69.523005256
69.9004898653
70.2824154161
70.6697522102
71.0635603985
71.4648765018
71.8746112277
72.2934642003
72.7218573313
73.1598894557
73.6073121978
74.0635263633
74.5275973276
74.998286314
75.4740934278
75.9533094641
76.434072033
76.9144226078
77.3923615423
77.8658967319
78.3330856869
78.7920689568
79.2410947668
79.6785355047
80.1028960357
80.5128172367
80.9070742708
81.2845739758
81.6443524619
81.9855737995
82.3075329623
82.6096616779
82.8915407031
83.1529147923
83.393712656
83.6140682739
83.8143424237
83.9951431899
84.1573421081
84.3020843807
84.4307914528
84.5451535875
84.6471127741
84.7388340419
84.8226668246
84.9010959613
84.9766852306
85.0520150353
85.1296166937
85.2119062512
85.3011210221
85.3992601082
85.5080342002
85.6288232164
85.7626459681
85.9101409166
86.0715580594
86.2467620508
86.4352449205
86.6361466098
86.8482808717
87.0701652119
87.300053806
87.5359689187
87.7757333339
88.0170009057
88.2572859879
88.4939934031
88.7244492443
88.945934793
89.1557241233
89.3511287596
89.5295498887
89.6885385976
89.8258631959
89.9395835487
90.0281282411
90.0903721184
90.1257089008
90.134113662
90.1161890459
90.073189161
90.0070173001
89.9201922388
89.8157803369
89.6972944625
89.5685594452
89.4335510868
89.2962128729
89.1602615471
89.0289907944
88.9050869092
88.7904676528
88.6861572906
88.5922095189
88.5076860077
88.4306967058
88.3585056526
88.2876982907
88.2144049092
88.1345703202
88.0442539683
87.9399440406
87.8188656446
87.679261112
87.5206240589
87.3438671825
87.1514089314
86.9471681033
86.7364601514
86.5257974131
86.3225984433
86.1348213474
85.9705390893
85.8374813063
85.7425695568
85.6914749108
85.6882266635
85.7348997306
85.8314023061
85.9753828349
86.162264359
86.385410749
86.63641816
86.9055177329
87.1820675727
87.45510658
87.7139368342
87.9487003786
88.1509136024
88.3139261848
88.4332749307
88.5069090033
88.5352718577
88.5212329091
88.4698730182
88.3881351706
88.2843638137
88.1677607658
88.0477927949
87.9335881752
87.8333621854
87.7539074946
87.7001833096
87.6750284422
87.6790166938
87.7104631982
87.7655805008
87.8387718851
87.9230415257
88.0104928917
88.0928810246
88.162180298
88.2111301381
88.2337208673
88.2255867185
88.1842816483
88.109419494
88.0026708518
87.8676177418
87.7094793261
87.5347278037
87.3506243194
87.1647061975
86.9842649382
86.815848283
86.6648236352
86.5350307961
86.4285492338
86.345592587
86.2845372646
86.2420804042
86.2135145749
86.1930978938
86.1744913773
86.1512316109
86.1172045574
86.0670870804
85.9967240781
85.9034169583
85.7861029167
85.6454157339
85.483624953
85.3044615607
85.1128437143
84.9145248646
84.7156929699
84.5225496029
84.3409006309
84.1757880564
84.031189534
83.9098046476
83.8129435858
83.7405217426
83.6911584158
83.6623690928
83.6508331213
83.6527143953
83.6640089996
83.6808898195
83.7000217133
83.7188221915
83.7356482653
83.7498938567
83.7619929682
83.7733278752
83.7860520304
83.8028435406
83.8266095778
83.8601666725
83.9059251767
83.9656026351
84.0399937274
84.1288142491
84.2306355754
84.3429167236
84.4621334977
84.5839980714
84.7037523177
84.8165155064
84.9176596108
85.0031836326
85.0700601997
85.1165247903
85.1422855136
85.1486351034
85.1384538053
85.1161007866
85.0871976308
85.0583179778
85.0366012758
85.0293170465
85.0434091247
85.0850487575
85.1592290741
85.2694282733
85.4173631738
85.6028521911
85.8237961469
86.0762782217
86.3547765197
86.6524753909
86.9616534475
87.2741222755
87.5816867744
87.87659569
88.1519529348
88.4020644208
88.6226964296
88.8112322235
88.9667178661
89.0897971612
89.1825445513
89.2482090076
89.2908908589
89.3151752523
89.325751022
89.3270416404
89.3228761558
89.3162209486
89.3089924085
89.3019613739
89.2947548904
89.2859522705
89.273267053
89.2537983327
89.2243337176
89.1816778321
89.1229829294
89.0460568575
88.9496233531
88.8335172378
88.6988006948
88.5477891489
88.3839882631
88.2119434213
88.0370132247
87.8650823102
87.7022325467
87.5543950674
87.4270053532
87.324683919
87.250963583
87.2080795235
87.1968339755
87.2165436054
87.2650700097
87.3389316072
87.4334860062
87.5431719079
87.6617926319
87.7828246766
87.8997324041
88.0062704298
88.096757271
88.1663068592
88.2110084124
88.2280468479
88.2157620767
88.1736489369
88.1023033482
88.0033205587
87.8791572978
87.7329684021
87.5684290748
87.3895537013
87.2005214473
87.0055171426
86.8085914879
86.6135470222
86.4238491857
86.2425627655
86.0723128877
85.9152654346
85.7731241538
85.647140517
85.5381320457
85.4465066764
85.3722902284
85.3151558238
85.2744553575
85.2492526039
85.2383598942
85.2403787415
85.2537449982
85.2767803913
85.3077485433
85.3449163815
85.3866179217
85.4313170341
85.4776669784
85.5245614946
85.5711753005
85.6169876642
85.6617893508
85.705668381
85.7489756331
85.7922721042
85.8362597268
85.8817003278
85.929328066
85.9797630665
86.0334324137
86.0905044256
86.1508445374
86.2139945083
86.2791802571
86.3453478167
86.4112263788
86.4754144801
86.5364825899
86.5930848641
86.6440718525
86.6885930774
86.7261816787
86.7568111416
86.7809189869
86.7993936432
86.8135213546
86.8248959802
86.8352965954
86.8465409999
86.8603251256
86.8780597154
86.9007199019
86.9287171034
86.96180776
86.9990483093
87.0388033556
87.0788096092
87.1162957069
87.1481533237
87.1711494379
87.1821672136
87.1784605418
87.1579038215
87.1192182478
87.0621583832
86.987641203
86.8978058417
86.7959947111
86.6866524409
86.5751458569
86.4675096325
86.3701321223
86.2893978147
86.2313076198
86.2011015593
86.2029058127
86.2394304421
86.3117370885
86.4190956056
86.55894145
86.7269407836
86.9171630249
87.1223530952
87.3342900413
87.5442135236
87.7432910491
87.9231012433
88.076102471
88.1960578413
88.2783912058
88.3204501457
88.3216585129
88.283548895
88.2096704628
88.1053783654
87.9775157421
87.8340076787
87.6833914836
87.5343120412
87.3950146155
87.2728651151
87.1739288537
87.1026326442
87.061532945
87.0512025866
87.0702434276
87.1154234509
87.1819282774
87.2637105494
87.3539147216
87.4453490229
87.5309733647
87.6043719169
87.6601805368
87.6944409581
87.704860318
87.6909583111
87.6540944325
87.5973738982
87.5254395959
87.444164401
87.3602641315
87.280857434
87.2130005682
87.163228765
87.1371316929
87.1389919912
87.1715070507
87.2356136002
87.3304229135
87.453270739
87.5998761299
87.7645982554
87.9407729072
88.1211065023
88.298101929
88.4644876863
88.6136240404
88.7398609362
88.8388262057
88.9076281463
88.9449608197
88.9511087347
88.9278536525
88.8782919037
88.8065759396
88.7175994511
88.6166478831
88.5090365615
88.3997611719
88.2931810427
88.1927549647
88.1008425414
88.0185839591
87.9458606501
87.8813375329
87.8225801772
87.7662370109
87.7082730734
87.6442393184
87.5695588492
87.4798131736
87.3710114099
87.2398278753
87.0837967511
86.9014550419
86.69243049
86.457472269
86.19842946
85.9181814142
85.6205298619
85.3100612996
84.9919909979
84.6719990332
84.3560670701
84.0503241815
83.7609076757
83.4938424861
83.2549392506
83.0497124908
82.8833144204
82.7604813121
82.6854878604
82.6621051195
82.6935583308
82.7824812649
82.9308654928
83.1400051185
83.4104387563
83.7418923285
84.1332263462
84.5823946829
85.0864189793
85.6413857156
86.2424702084
86.8839897847
87.5594889362
88.2618551606
88.9834625024
89.7163390341
90.4523497152
91.1833884061
91.9015681548
92.5994012228
93.2699601092
93.9070109908
94.5051143849
95.0596875601
95.5670283829
96.0243017414
96.4294897107
96.7813137527
97.0791346394
97.3228392636
97.5127236943
97.6493808622
97.7336017246
97.7662953225
97.7484340231
97.6810255619
97.5651117432
97.4017927244
97.1922717292
96.9379137597
96.6403137572
96.3013640546
95.9233156143
95.5088257467
95.0609884697
94.5833427913
94.0798585834
93.5548997086
93.013167496
92.4596282959
91.8994303597
91.3378147535
90.7800262076
90.2312279482
89.6964247303
89.1803960826
88.6876393687
88.2223222909
87.7882414334
87.3887838305
87.0268874499
86.704996666
86.4250095921
86.1882164491
85.995229178
85.8459057347
85.7392731262
85.6734578559
85.6456314323
85.6519829618
85.6877255844
85.7471489445
85.8237216898
85.9102476465
85.999076082
86.0823601564
86.1523518348
86.2017208008
86.2238763549
86.213271975
86.1656697665
86.0783417049
85.9501879993
85.7817571271
85.5751579235
85.3338617958
85.0624020752
84.7659844558
84.450032635
84.1197003639
83.7793856687
83.4322853364
83.0800291879
82.7224288912
82.3573712843
81.9808759768
81.5873245404
81.1698571195
80.7209162693
80.2329061031
79.6989211229
79.1134908066
78.4732802551
77.7776842772
77.0292571256
76.2339292326
75.4009727336
74.5426962303
73.6738685624
72.810893787
71.9707796219
71.1699612549
70.4230610635
69.7416713125
69.1332583408
68.6002807745
68.1396042633
67.7422834904
67.3937544172
67.0744549139
66.7608597853
66.4268831511
66.0455714372
65.5909812165
65.0401161441
64.3747841237
63.5832294032
62.6614045348
61.6137622701
60.4534752064
59.2020268023
57.8881597313
56.5462112934
55.2139154966
53.9297902151
52.7302686379
51.6467579662
50.7028286873
49.9117346727
49.2744578659
48.7784414429
48.3971365845
48.0904416556
47.8060514756
47.4816778512
47.0480388312
46.4324625153
45.562904166
44.372142311
42.8019038944
40.8066673753
38.3569113644
35.4416107559
32.0698329219
28.2713489219
24.0962404011
19.6135555741
14.9091344424
10.0827811092
5.24500761451
0.513599506225
-3.98973885844
-8.14241368502
-11.8234379415
-14.9152384237
-17.3046883158
-18.8833593392
-19.547070499
-19.1948925402
-17.7278361469
-15.0475084764
-11.0550563449
-5.65071980751
1.26570149979
9.79321648261
20.0266695341
32.0523534531
45.94225094
61.7470736212
79.4883970264
99.150306492
120.671066408
143.935399811
168.767999597
194.928891131
222.111219252
249.941940623
277.985777948
305.752624754
332.708402538
358.289166655
381.918049275
403.024433321
421.064576426
435.542766716
446.032001318
452.193139273
453.791503302
450.709985313
442.957850789
430.674626937
414.128692738
393.71045236
369.920250028
343.351461734
314.669459733
284.587371977
253.839740399
223.15530426
193.230193005
164.702798979
138.131517662
113.976395851
92.5855211316
74.1867366278
58.8849792829
46.6652445068
37.4008847411
30.8666736716
26.7558293357
24.6999951089
24.2910503043
25.103553425
26.7166265239
28.7341613923
30.8023594393
32.6238060523
33.9675033859
34.6745417046
34.6593492708
33.9067179029
32.4650360588
30.4363619646
27.9641232227
25.2193288559
22.3862224984
19.6482874011
17.1754437238
15.1131551933
13.5740050009
12.6321107502
12.3205485563
12.6317524895
13.5206640236
14.9102439789
16.6988213111
18.7686662602
20.9951258689
23.2556620574
25.4381753529
27.4480809095
29.2137180811
30.6898115001
31.8588532203
32.7304259759
33.3386284436
33.7378889213
33.9975508705
34.1956810156
34.4125826776
34.7244918681
35.197899067
35.8848722744
36.8196666947
38.0168031448
39.4706822359
41.156688753
43.0336368793
45.047317755
47.1348444666
49.2294440781
51.2653327375
53.1823194308
54.9298198749
56.4700197369
57.7799973819
58.8527006014
59.6967588877
60.3351955943
60.8031822434
61.1450367834
61.4107141232
61.6520614095
61.9191133842
62.2566913166
62.7015283831
63.2801031109
64.0072979072
64.8859371131
65.9071944255
67.0517961416
68.291894543
69.5934438896
70.9188837663
72.2299236284
73.4902255692
74.6678001427
75.7369605264
76.6797214685
77.4865748942
78.1566225769
78.6970947687
79.1223250574
79.4522885976
79.7108345359
79.9237596827
80.1168720827
80.3141846286
80.5363613722
80.7995139135
81.1144105932
81.4861298395
81.9141522809
82.3928538822
82.9123359111
83.459506164
84.0193117973
84.5760205507
85.114448818
85.6210478747
86.0847748534
86.4976973104
86.8553040926
87.1565200307
87.4034453475
87.6008615511
87.7555592724
87.8755575362
87.9692839021
88.0447876287
88.1090474536
88.1674268247
88.2233114049
88.2779487795
88.3304921136
88.3782318472
88.4169854785
88.4416040179
88.4465455694
88.426464245
88.3767642985
88.2940720262
88.1765907665
88.0243120823
87.8390725207
87.6244542675
87.385545699
87.1285847547
86.8605193578
86.5885230819
86.3195071966
86.0596690786
85.8141113838
85.5865617444
85.3792115321
85.1926831016
85.0261237381
84.8774150122
84.7434766797
84.62063792
84.5050440251
84.393063949
84.2816657817
84.1687300901
84.0532778908
83.9355945173
83.8172422983
83.7009622727
83.5904735214
83.4901879119
83.4048626143
83.3392192952
83.2975587741
83.2834025126
83.2991885004
83.3460458102
83.4236651107
83.5302771883
83.6627409273
83.8167381466
83.9870616781
84.1679777439
84.3536386871
84.5385183363
84.7178403489
84.8879704967
85.0467459675
85.1937173674
85.3302871709
85.4597332164
85.5871129506
85.7190522197
85.8634288296
86.0289688993
86.2247785462
86.4598377901
86.7424856452
87.0799270297
87.4777889043
87.9397544616
88.4672948113
89.0595149951
89.7131249052
90.4225361193
91.1800818832
91.9763474462
92.8005931311
93.641246911
94.4864394384
95.3245532456
96.1447548416
96.9374811414
97.6948541574
98.4110013196
99.0822667851
99.7073014399
100.287029677
100.824497037
101.324609044
101.793779337
102.239508146
102.669917743
103.093272085
103.517509023
103.949813371
104.39625338
104.861499938
105.348643536
105.85911437
106.392707832
106.947707241
107.521091799
108.108810929
108.706103364
109.30783464
109.908828993
110.504168996
111.089443048
111.660919921
112.21564148
112.751425668
113.266781826
113.76074667
114.232653653
114.681857607
115.107436396
115.507896886
115.880909822
116.223099952
116.529911101
116.795563868
117.013115104
117.174621489
117.271403352
117.294396187
117.234569991
117.083393362
116.833312288
116.478213313
116.013840681
115.438138201
114.751491533
113.956851569
113.059727306
112.06804573
110.99188212
109.843074638
108.634744266
107.380746825
106.095088653
104.791340589
103.482083817
102.178420558
100.8895779
99.6226272828
98.382334748
97.1711491358
95.9893253433
94.8351721341
93.7054074556
92.5955949979
91.5006321514
90.4152572176
89.3345423735
88.2543414315
87.1716630874
86.0849479159
84.9942339474
83.9012017533
82.8091005674
81.7225632838
80.6473260131
79.5898746813
78.5570452899
77.555605623
76.591849663
75.6712311844
74.7980626901
73.9752979044
73.2044129677
72.4853906036
71.8168072784
71.1960138298
70.6193957105
70.0826918455
69.5813488741
69.1108844332
68.6672333126
68.2470518853
67.8479610942
67.4687103747
67.1092532849
66.7707307448
66.4553646613
66.1662719734
65.9072122639
65.6822900717
65.4956320848
65.351063565
65.2518065035
65.2002201507
65.197601979
65.2440604162
65.3384682345
65.4784967703
65.6607275173
65.8808310333
66.1337983643
66.4142088242
66.716513419
67.0353144891
67.3656221313
67.7030710247
68.0440838465
68.3859722208
68.7269720585
69.0662131761
69.4036298044
69.7398209198
70.0758757806
70.4131778467
70.7532062915
71.0973481083
71.4467382304
71.8021379408
72.1638599314
72.5317445679
72.9051859799
73.2832040371
73.6645536443
74.0478588604
74.4317585764
74.8150487234
75.1968069989
75.576487846
75.953975289
76.3295891992
76.7040410881
77.0783412162
77.4536640312
77.8311803991
78.2118717815
78.5963400192
78.98463056
79.3760854538
79.769239801
80.1617751725
80.5505369142
80.9316201595
81.3005234309
81.6523623814
81.9821336943
82.2850129276
82.5566684357
82.7935701499
82.993272383
83.1546499162
83.2780692586
83.3654801021
83.4204184832
83.4479152488
83.4543130784
83.4469987449
83.4340639269
83.4239147331
83.4248486363
83.4446278792
83.4900711396
83.5666907267
83.6783977348
83.8272941292
84.0135652832
84.2354810268
84.4895062108
84.7705159276
85.0721021735
85.3869546099
85.7072919277
86.0253180427
86.333675403
86.6258669965
86.8966213908
87.1421772464
87.3604707238
87.5512128507
87.7158541483
87.8574365191
87.9803432823
88.0899636573
88.1922934961
88.2934967561
88.3994582484
88.5153545333
88.6452720515
88.7918972306
88.9562991713
89.1378181201
89.334068068
89.5410529303
89.7533897865
89.9646244338
90.1676182026
90.3549815548
90.5195257707
90.654704339
90.7550150263
90.8163355438
90.8361729213
90.8138090651
90.7503353401
90.6485725552
90.5128850687
90.3488992723
90.16314828
89.962666844
89.7545631703
89.545597994
89.3417980296
89.1481304939
88.9682604524
88.8044056291
88.6572979872
88.5262526089
88.4093375515
88.303631752
88.2055491905
88.1112068897
88.0168072013
87.9190063895
87.8152421995
87.7039950752
87.5849629485
87.4591360506
87.3287665731
87.1972331206
87.0688103056
86.9483589501
86.840960061
86.7515188612
86.6843688699
86.6429050462
86.6292744322
86.6441475422
86.6865899163
86.7540454944
86.8424341335
86.9463605362
87.0594196868
87.1745797049
87.2846173494
87.3825746561
87.4622058469
87.5183826162
87.5474291786
87.5473623066
87.5180193784
87.461063143
87.3798624121
87.2792558312
87.1652151143
87.0444283351
86.9238341287
86.8101370274
86.7093394251
86.6263217604
86.5645011644
86.5255921153
86.5094872
86.514265853
86.5363323248
86.5706728512
86.6112147995
86.6512631283
86.6839847814
86.7029068311
86.7023941133
86.6780732554
86.6271732996
86.5487593205
86.4438436207
86.3153642769
86.1680336064
86.0080664062
85.8428053704
85.6802697817
85.52865627
85.3958263568
85.2888136925
85.2133843822
85.17367916
85.1719594944
85.2084745806
85.2814564738
85.3872427612
85.5205173672
85.6746520902
85.8421258275
86.0149921216
86.1853660805
86.345896457
86.4901936102
86.613186452
86.7113859359
86.7830412373
86.8281802483
86.8485332229
86.8473496002
86.8291200936
86.7992252753
86.7635366771
86.7279953519
86.6981970782
86.6790115484
86.674257596
86.6864559114
86.7166728395
86.7644627458
86.8279103008
86.9037676462
86.9876765615
87.0744577069
87.1584486315
87.2338671857
87.2951782568
87.3374411982
87.356616832
87.3498169412
87.3154821552
87.2534811944
87.1651264372
87.0531085369
86.9213553233
86.7748248093
86.6192477723
86.460833883
86.3059594231
86.160853319
86.031297642
85.9223583626
85.8381590277
85.7817058987
85.7547711774
85.7578373337
85.7901030016
85.849546953
85.9330438213
86.0365248601
86.1551734213
86.2836452448
86.4163035009
86.5474571192
86.6715924049
86.7835887164
86.8789105254
86.9537695876
87.0052511272
87.0314010432
87.0312719265
87.0049277017
86.9534082147
86.8786555711
86.7834056687
86.6710508866
86.5454791781
86.4108967171
86.2716408237
86.1319923902
85.9959938413
85.8672822582
85.7489445636
85.6434013999
85.5523254421
85.4765981237
85.4163070396
85.3707848703
85.3386882396
85.3181124197
85.3067366002
85.3019915022
85.3012417975
85.3019711076
85.3019606982
85.2994504267
85.2932724292
85.2829489494
85.2687470511
85.2516866622
85.2334993119
85.2165394606
85.203653043
85.1980087177
85.2029024171
85.2215454614
85.2568494641
85.3112212422
85.386379332
85.4832051378
85.6016367667
85.7406144115
85.8980816211
86.0710422424
86.2556716928
86.4474757647
86.6414900882
86.8325070671
87.0153194436
87.1849649766
87.336958934
87.4675016437
87.5736488522
87.6534364986
87.7059532353
87.7313567474
87.7308356245
87.7065191074
87.6613425227
87.5988766279
87.5231319629
87.438350825
87.3487998499
87.2585738755
87.1714229775
87.0906097115
87.0188057233
86.9580284156
86.9096208218
86.8742710651
86.8520668374
86.8425794435
86.8449681778
86.8580963465
86.8806501156
86.9112515872
86.9485582919
86.9913443323
87.0385576533
87.089353449
87.1431024701
87.1993769172
87.2579185334
87.3185925349
87.3813341432
87.4460925219
87.5127784616
87.5812199979
87.6511297051
87.7220861755
87.7935282463
87.8647651122
87.9349966442
88.0033425832
88.0688770858
88.1306641479
88.1877906303
88.2393942477
88.2846843124
88.3229542235
88.3535858013
88.376047333
88.3898880231
88.3947308107
88.3902677316
88.3762604234
88.3525492182
88.3190727535
88.2758969417
88.2232548296
88.1615921637
88.0916171159
88.0143470186
87.9311479367
87.8437585686
87.7542941926
87.6652247325
87.5793234569
87.4995839797
87.4291065948
87.3709569605
87.3280024612
87.3027353397
87.2970918946
87.3122793848
87.3486229109
87.4054453927
87.4809904348
87.572398919
87.6757439169
87.7861288174
87.8978473529
88.0046009386
88.0997648798
88.1766917995
88.2290361462
88.2510838952
88.2380680511
88.1864525445
88.0941658514
87.9607706182
87.7875573105
87.5775543552
87.3354512945
87.0674371089
86.7809608005
86.4844249704
86.1868290094
85.8973781113
85.6250793809
85.3783459803
85.1646284819
84.9900936393
84.859364391
84.775335049
84.7390668275
84.7497694891
84.8048657882
84.9001321978
85.0299075554
85.1873544997
85.3647601691
85.5538589372
85.7461602914
85.9332669136
86.1071685671
86.2605015479
86.3867651703
86.4804895838
86.5373552441
86.5542635265
86.5293632799
86.4620400175
86.3528733189
86.2035707159
86.0168862496
85.7965288619
85.5470658098
85.2738250327
84.982797272
84.6805380072
84.3740670858
84.0707638329
83.7782537478
83.504284032
83.2565845582
83.0427153657
82.8698996442
82.7448450932
82.6735591403
82.6611634841
82.7117180363
82.8280630798
83.0116888485
83.2626435574
83.5794871347
83.9592985187
84.3977393229
84.8891761042
85.4268576527
86.0031418936
86.6097636836
87.2381302838
87.8796310124
88.5259447688
89.1693289857
89.8028754346
90.4207172376
91.0181775917
91.591850194
92.1396084207
92.6605420876
93.1548284379
93.6235430001
94.0684242182
94.4916057248
94.8953332185
95.2816830443
95.6523000505
96.0081696923
96.34943815
96.6752909775
96.983896814
97.2724180301
97.5370874943
97.7733464969
97.9760345071
98.1396198758
98.2584583146
98.3270654721
98.340387995
98.2940617443
98.1846431967
98.0098056387
97.7684921393
97.4610204584
97.0891379713
96.6560268862
96.1662617244
95.6257229617
95.041471735
94.4215922003
93.7750049903
93.1112596141
92.4403098082
91.7722767178
91.1172046384
90.4848127128
89.8842479218
89.3238434522
88.8108863161
88.3514025907
87.9499667075
87.6095409646
87.3313554535
87.1148362834
86.957589764
86.8554507328
86.8025983169
86.7917420529
86.81437634
86.861099221
86.9219841847
86.9869913214
87.0464000995
87.0912412434
87.1137052232
87.1075021883
87.068149645
86.9931662256
86.8821549998
86.7367644777
86.560522815
86.3585493249
86.1371544941
85.9033491486
85.6642911602
85.4267016125
85.1962898108
84.9772253861
84.7716970593
84.5795927177
84.3983290125
84.2228490298
84.0457982627
83.8578749407
83.648339409
83.4056539738
83.1182156689
82.7751343142
82.3670037683
81.8866121116
81.3295382424
80.6945868564
79.9840255157
79.2035983168
78.3623065544
77.4719628813
76.546541197
75.601362233
74.6521664865
73.7141378817
72.8009461874
71.9238783017
71.0911242707
70.3072755628
69.5730783346
68.8854676954
68.2378883772
67.6208859775
67.0229309597
66.4314206084
65.8337846903
65.2186131429
64.5767155998
63.9020257762
63.1922720663
62.4493486772
61.679342589
60.8921954598
60.1010071914
59.3210159647
58.5683160124
57.8583966466
57.2046057247
56.6166505668
56.099252803
55.6510689272
55.2639718655
54.9227699988
54.6054075982
54.2836608363
53.9243054172
53.4906969102
52.944672609
52.2486561411
51.3678281878
50.2722159988
48.9385566386
47.3518024506
45.5061601284
43.4055898547
41.0637302625
38.5032599325
35.7547559771
32.85515008
29.8459256904
26.771223417
23.6760429638
20.6047280529
17.5999088496
14.7020476499
11.9496867426
9.38044403954
7.03273450635
4.94812731732
3.17418050075
1.76752790946
0.796945287385
0.346082987062
0.515536453918
1.42393503159
3.20775642363
6.01963100074
10.0249783605
15.3969140957
22.3094768786
30.9293422632
41.4063111897
53.8629710884
68.3840245182
85.0058565019
103.706953732
124.399803969
146.924875905
171.04721911
196.456122876
222.768142154
249.5336386
276.246808854
302.358984768
327.294805411
350.470685648
371.314854809
389.28811947
403.904426188
414.750266809
421.501986237
423.940120544
421.960009504
415.578088863
404.933464546
390.284587946
372.001096016
350.551109588
326.484514077
300.412948052
272.987390953
244.874361913
216.731812665
189.185808347
162.809049363
138.102184664
115.478719724
95.2541350519
77.6396084762
62.7404996593
50.5595084007
41.0041876975
33.8982799323
28.9961628696
25.9995596126
24.5755755972
24.3750952452
25.0505888903
26.2724546264
27.7431356111
29.2084109302
30.4654419753
31.3673563446
31.8243561255
31.8015349561
31.3137646245
30.4181601633
29.204744326
27.7860016673
26.2860365607
24.8300288514
23.5346218129
22.49977646
21.8025045144
21.4927459668
21.5915034926
22.0911946792
22.9580386661
24.1361721173
25.5530943647
27.1259733696
28.7683168576
30.3965134921
31.9357882678
33.3251819038
34.5212508747
35.500291904
36.2590073785
36.8136415753
37.1977256117
37.4586587751
37.6534263887
37.8438026511
38.0914065689
38.4529749696
38.9761850798
39.6963039502
40.6338748376
41.7935652442
43.1642158145
44.7200391581
46.4228400262
48.2250588837
50.0733895462
51.9126913157
53.6899039819
55.3576850994
56.8775193124
58.2220963328
59.3768140164
60.3403297248
61.1241545716
61.7513532285
62.2544725449
62.6728751401
63.049687385
63.4285922809
63.8507000249
64.3517156112
64.9595925016
65.6928214019
66.559450244
67.5568777665
68.672405644
69.8844808765
71.1645136325
72.4791179195
73.7926001618
75.0695081833
76.2770579823
77.3872689652
78.3786686774
79.2374626914
79.9581081115
80.5432767319
81.003234845
81.3547106585
81.6193537762
81.8219155569
81.9882958283
82.1436037204
82.3103751715
82.5070697828
82.7469469953
83.0373882922
83.3796959521
83.7693644316
84.1967824427
84.6482972059
85.1075441913
85.556932365
85.9791653386
86.3586802316
86.6828978215
86.9431942137
87.1355279916
87.260684467
87.3241299307
87.3354960084
87.3077442296
87.256081122
87.1967123532
87.1455335202
87.1168585857
87.1222811455
87.1697522317
87.2629395484
87.4009132884
87.5781764091
87.785033854
88.0082695701
88.2320794595
88.4391902085
88.6120814204
88.7342262126
88.7912597974
88.7719988704
88.6692406797
88.4802918328
88.207193967
87.8566364163
87.439566151
86.9705274438
86.4667795963
85.9472565848
85.4314399126
84.9382212421
84.4848287839
84.0858855435
83.75265765
83.4925352501
83.3087726093
83.2004945887
83.1629611155
83.1880630061
83.2650086189
83.3811485072
83.5228805742
83.6765727641
83.8294434853
83.970343483
84.0903928064
84.1834382411
84.2463086095
84.2788617793
84.2838288346
84.2664759049
84.2341152755
84.1955046871
84.1601817411
84.1377806287
84.137377754
84.1669097738
84.2326993347
84.3391161556
84.4883902168
84.6805826436
84.9137085136
85.1839971771
85.4862656067
85.8143735707
86.1617264443
86.5217881461
86.888568049
87.2570501228
87.6235349947
87.9858751256
88.343590358
88.6978593157
89.0513910695
89.4081892867
89.7732290989
90.1520691671
90.5504288806
90.9737590519
91.4268358839
91.9134045331
92.435895654
92.9952318315
93.5907359968
94.2201453886
94.879728548
95.5644963208
96.2684918159
96.9851400874
97.7076335786
98.4293290112
99.1441303089
99.8468334863
100.533412691
101.201229692
101.849154921
102.477592829
103.088410981
103.684778129
104.270920273
104.85181095
105.432812605
106.019292407
106.616233569
107.22786439
107.8573275
108.50640634
109.175325278
109.862634441
110.565184504
111.278192493
111.995394978
112.709279316
113.411380613
114.092627303
114.743716136
115.355497067
115.91934588
116.427507253
116.873388346
117.251789126
117.559057846
117.793165236
117.953694693
118.041750854
118.059793559
118.011406912
117.901018938
117.73358758
117.51427164
117.248104119
116.939687939
116.592928471
116.210819592
115.795291652
115.347129981
114.865966288
114.350341719
113.797836738
113.205257811
112.568870035
111.884660397
111.148615941
110.357000962
109.506616119
108.595026824
107.620747328
106.583372051
105.483649387
104.323494069
103.105941787
101.835050695
100.51575776
99.1537028446
97.7550313984
96.326190522
94.8737311299
93.4041292445
91.9236380412
90.438177104
88.9532654067
87.4739987432
86.0050713408
84.5508350807
83.1153893685
81.7026906393
80.3166699525
78.9613461385
77.6409220902
76.35985118
75.1228656927
73.9349591682
72.8013203632
71.7272179078
70.71783956
69.7780937278
68.9123836185
68.1243682566
67.4167250734
66.7909303539
66.2470751569
65.7837294679
65.3978697526
65.0848793831
64.8386265844
64.651622933
64.5152587071
64.4201071458
64.3562870354
64.313864687
64.2832778056
64.2557605835
64.2237455868
64.1812234223
64.1240363665
64.0500915876
63.9594786064
63.8544816204
63.739484531
63.6207688587
63.5062136243
63.4049102604
63.3267087011
63.2817184358
63.2797879876
63.329989552
63.4401343893
63.6163442985
63.862702401
64.1810000479
64.5705948883
65.0283867922
65.548914991
66.1245708768
66.7459165336
67.4020930413
68.0812970583
68.771303186
69.4600039849
70.135941111
70.7888008593
71.4098481712
71.9922783363
72.5314708688
73.0251304431
73.4733120118
73.8783285934
74.2445487007
74.5780969352
74.8864719465
75.1781050553
75.4618823922
75.7466561817
76.0407716741
76.3516324893
76.6853277305
77.0463377657
77.4373330116
77.8590750944
78.3104211565
78.7884299856
79.2885617255
79.8049580132
80.3307858108
80.8586244197
81.3808741222
81.8901636388
82.379734375
82.8437814474
83.2777337481
83.6784587921
84.0443829313
84.3755225043
84.6734268033
84.9410361405
85.1824664119
85.4027321689
85.6074259782
85.8023721665
85.9932740404
86.1853756417
86.3831549997
86.590067368
86.8083511414
87.0389059255
87.2812495059
87.5335549691
87.7927650105
88.0547766757
88.3146847259
88.5670698909
88.8063157434
89.0269358289
89.2238931875
89.3928935726
89.5306367595
89.6350110317
89.7052206114
89.7418400925
89.7467899501
89.7232375959
89.6754284313
89.6084557087
89.5279836307
89.43993899
89.3501882754
89.2642189854
89.1868437771
89.1219443976
89.0722705311
89.0393051295
89.0232037655
89.0228131496
89.0357671113
89.0586559414
89.08725847
89.1168241568
89.142388935
89.1591065246
89.1625746408
89.149137622
89.1161459248
89.0621567491
88.9870635441
88.892143818
88.7800225614
88.6545509472
88.5206065825
